Timestamp,Count
40760,0
40762,0
40764,9
40766,-13
40768,-27
40770,27
40772,-116
40774,21
40776,38
40778,-406
40780,1871
40781,5183
40783,4423
40785,-134
40787,-8618
40789,-21717
40791,-37368
40793,-53146
40795,-66777
40797,-75921
40799,-80535
40801,-81618
40803,-78294
40805,-74339
40807,-73582
40809,-73143
40811,-72143
40812,-71532
40814,-70801
40816,-70087
40818,-69465
40820,-68833
40822,-68241
40824,-67666
40826,-67082
40828,-66474
40830,-65841
40832,-65190
40834,-64508
40836,-63827
40838,-63167
40840,-62519
40842,-61875
40843,-61238
40845,-60601
40847,-59971
40849,-59342
40851,-58720
40853,-58098
40855,-57481
40857,-56863
40859,-56252
40861,-55644
40863,-55044
40865,-54444
40867,-53851
40869,-53262
40871,-52681
40873,-52102
40874,-51525
40876,-50951
40878,-50381
40880,-49815
40882,-49257
40885,-48702
40887,-48149
40889,-47602
40891,-47058
40893,-46515
40895,-45977
40897,-45443
40899,-44916
40901,-44389
40903,-43869
40905,-43353
40906,-42844
40908,-42334
40910,-41828
40912,-41332
40914,-40837
40916,-40341
40918,-39851
40920,-39365
40922,-38883
40924,-38407
40926,-37935
40928,-37467
40930,-37005
40932,-36543
40934,-36083
40936,-35627
40937,-35169
40939,-34715
40941,-34267
40943,-33827
40945,-33391
40947,-32958
40949,-32534
40951,-32110
40953,-31688
40955,-31268
40957,-30852
40959,-30437
40961,-30020
40963,-29611
40965,-29206
40967,-28806
40968,-28407
40970,-28015
40972,-27627
40974,-27238
40976,-26850
40978,-26467
40980,-26087
40982,-25713
40984,-25337
40986,-24970
40988,-24603
40990,-24244
40992,-23886
40994,-23527
40996,-23173
40998,-22823
40999,-22477
41001,-22131
41003,-21791
41005,-21448
41007,-21106
41010,-20772
41012,-20436
41014,-20107
41016,-19784
41018,-19460
41020,-19143
41022,-18828
41024,-18513
41026,-18202
41028,-17893
41030,-17590
41031,-17288
41033,-16991
41035,-16695
41037,-16400
41039,-16110
41041,-15820
41043,-15522
41045,-15228
41047,-14932
41049,-14643
41051,-14357
41053,-14077
41055,-13802
41057,-13532
41059,-13262
41061,-12989
41062,-12719
41064,-12446
41066,-12177
41068,-11915
41070,-11666
41072,-11417
41074,-11177
41076,-10938
41078,-10701
41080,-10460
41082,-10220
41084,-9979
41086,-9746
41088,-9517
41090,-9294
41092,-9084
41093,-8876
41095,-8668
41097,-8466
41099,-8261
41101,-8061
41103,-7856
41105,-7649
41107,-7445
41109,-7239
41111,-7025
41113,-6809
41115,-6596
41117,-6382
41119,-6172
41121,-5970
41123,-5773
41124,-5576
41126,-5386
41128,-5192
41130,-5004
41132,-4813
41135,-4625
41137,-4439
41139,-4257
41141,-4069
41143,-3882
41145,-3697
41147,-3516
41149,-3333
41151,-3165
41153,-3000
41155,-2837
41156,-2673
41158,-2509
41160,-2341
41162,-2173
41164,-2006
41166,-1842
41168,-1685
41170,-1529
41172,-1373
41174,-1219
41176,-1066
41178,-908
41180,-740
41182,-557
41184,-365
41186,-161
41187,50
41189,257
41191,451
41193,629
41195,792
41197,935
41199,1058
41201,1161
41203,1229
41205,1255
41207,1240
41209,1182
41211,1101
41213,1028
41215,979
41217,960
41218,971
41220,1018
41222,1083
41224,1164
41226,1240
41228,1306
41230,1370
41232,1436
41234,1519
41236,1640
41238,1802
41240,2014
41242,2276
41244,2589
41246,2934
41248,3278
41249,3601
41251,3886
41253,4124
41255,4328
41257,4497
41260,4636
41262,4756
41264,4858
41266,4950
41268,5028
41270,5104
41272,5172
41274,5242
41276,5314
41278,5384
41280,5454
41281,5532
41283,5611
41285,5691
41287,5769
41289,5845
41291,5922
41293,6002
41295,6075
41297,6150
41299,6218
41301,6283
41303,6344
41305,6406
41307,6466
41309,6529
41311,6594
41312,6661
41314,6731
41316,6798
41318,6864
41320,6930
41322,6997
41324,7059
41326,7118
41328,7178
41330,7236
41332,7291
41334,7347
41336,7405
41338,7464
41340,7525
41342,7582
41343,7641
41345,7697
41347,7747
41349,7799
41351,7856
41353,7911
41355,7963
41357,8017
41359,8068
41361,8114
41363,8156
41365,8195
41367,8235
41369,8279
41371,8324
41373,8375
41374,8433
41376,8490
41378,8538
41380,8590
41382,8635
41385,8678
41387,8721
41389,8764
41391,8807
41393,8847
41395,8890
41397,8932
41399,8979
41401,9022
41403,9064
41405,9107
41406,9148
41408,9188
41410,9229
41412,9267
41414,9303
41416,9335
41418,9371
41420,9406
41422,9435
41424,9468
41426,9497
41428,9528
41430,9561
41432,9594
41434,9629
41436,9663
41437,9697
41439,9734
41441,9768
41443,9797
41445,9823
41447,9847
41449,9863
41451,9879
41453,9895
41455,9911
41457,9927
41459,9943
41461,9964
41463,9983
41465,9998
41467,10010
41468,10023
41470,10037
41472,10041
41474,10048
41476,10054
41478,10060
41480,10064
41482,10065
41484,10070
41486,10074
41488,10076
41490,10078
41492,10078
41494,10077
41496,10072
41498,10065
41499,10059
41501,10053
41503,10046
41505,10041
41507,10034
41510,10033
41512,10033
41514,10030
41516,10032
41518,10039
41520,10044
41522,10047
41524,10047
41526,10046
41528,10043
41530,10044
41531,10048
41533,10056
41535,10068
41537,10078
41539,10092
41541,10108
41543,10117
41545,10126
41547,10135
41549,10145
41551,10150
41553,10161
41555,10165
41557,10169
41559,10171
41561,10173
41562,10179
41564,10184
41566,10189
41568,10195
41570,10202
41572,10206
41574,10211
41576,10218
41578,10226
41580,10228
41582,10234
41584,10234
41586,10238
41588,10236
41590,10241
41592,10243
41593,10248
41595,10246
41597,10249
41599,10248
41601,10243
41603,10236
41605,10232
41607,10228
41609,10227
41611,10227
41613,10229
41615,10231
41617,10231
41619,10229
41621,10229
41623,10227
41624,10225
41626,10223
41628,10219
41630,10216
41632,10213
41635,10208
41637,10205
41639,10202
41641,10197
41643,10188
41645,10181
41647,10171
41649,10163
41651,10155
41653,10144
41655,10136
41656,10131
41658,10126
41660,10123
41662,10118
41664,10112
41666,10106
41668,10099
41670,10092
41672,10080
41674,10068
41676,10052
41678,10041
41680,10033
41682,10027
41684,10019
41686,10011
41687,10003
41689,9997
41691,9988
41693,9972
41695,9956
41697,9943
41699,9930
41701,9919
41703,9910
41705,9902
41707,9894
41709,9888
41711,9882
41713,9873
41715,9861
41717,9847
41718,9832
41720,9820
41722,9802
41724,9787
41726,9773
41728,9763
41730,9748
41732,9737
41734,9721
41736,9707
41738,9689
41740,9675
41742,9658
41744,9645
41746,9631
41748,9618
41749,9604
41751,9593
41753,9575
41755,9564
41757,9549
41760,9535
41762,9521
41764,9510
41766,9496
41768,9481
41770,9469
41772,9459
41774,9444
41776,9430
41778,9416
41780,9402
41781,9387
41783,9368
41785,9347
41787,9327
41789,9306
41791,9286
41793,9269
41795,9252
41797,9238
41799,9224
41801,9213
41803,9198
41805,9186
41807,9173
41809,9155
41811,9137
41812,9119
41814,9099
41816,9080
41818,9063
41820,9046
41822,9030
41824,9016
41826,9003
41828,8989
41830,8974
41832,8960
41834,8939
41836,8924
41838,8905
41840,8883
41842,8860
41843,8841
41845,8821
41847,8801
41849,8786
41851,8775
41853,8766
41855,8763
41857,8761
41859,8762
41861,8766
41863,8760
41865,8751
41867,8735
41869,8715
41871,8694
41873,8673
41874,8655
41876,8639
41878,8624
41880,8610
41882,8596
41885,8581
41887,8564
41889,8545
41891,8525
41893,8510
41895,8485
41897,8459
41899,8427
41901,8390
41903,8347
41905,8304
41906,8259
41908,8221
41910,8182
41912,8146
41914,8115
41916,8094
41918,8072
41920,8056
41922,8043
41924,8032
41926,8021
41928,8006
41930,7988
41932,7972
41934,7956
41936,7938
41937,7924
41939,7912
41941,7899
41943,7887
41945,7871
41947,7851
41949,7831
41951,7810
41953,7793
41955,7778
41957,7764
41959,7750
41961,7735
41963,7718
41965,7700
41967,7677
41968,7656
41970,7638
41972,7619
41974,7601
41976,7584
41978,7563
41980,7547
41982,7534
41984,7518
41986,7505
41988,7500
41990,7504
41992,7516
41994,7548
41996,7587
41998,7634
41999,7677
42001,7710
42003,7728
42005,7734
42007,7720
42010,7690
42012,7637
42014,7550
42016,7419
42018,7251
42020,7043
42022,6818
42024,6605
42026,6408
42028,6232
42030,6087
42031,5972
42033,5892
42035,5827
42037,5768
42039,5717
42041,5676
42043,5639
42045,5613
42047,5619
42049,5662
42051,5751
42053,5886
42055,6075
42057,6291
42059,6505
42061,6691
42062,6846
42064,6962
42066,7046
42068,7097
42070,7125
42072,7137
42074,7139
42076,7124
42078,7103
42080,7081
42082,7048
42084,7013
42086,6982
42088,6953
42090,6920
42092,6890
42093,6861
42095,6833
42097,6805
42099,6779
42101,6758
42103,6737
42105,6713
42107,6688
42109,6661
42111,6633
42113,6602
42115,6577
42117,6554
42119,6533
42121,6516
42123,6496
42124,6476
42126,6460
42128,6434
42130,6412
42132,6388
42135,6365
42137,6340
42139,6317
42141,6293
42143,6268
42145,6246
42147,6225
42149,6210
42151,6194
42153,6180
42155,6164
42156,6151
42158,6132
42160,6113
42162,6091
42164,6067
42166,6042
42168,6019
42170,5997
42172,5979
42174,5965
42176,5949
42178,5933
42180,5922
42182,5909
42184,5896
42186,5883
42187,5870
42189,5856
42191,5843
42193,5830
42195,5815
42197,5800
42199,5780
42201,5759
42203,5738
42205,5721
42207,5708
42209,5701
42211,5691
42213,5686
42215,5678
42217,5667
42218,5653
42220,5638
42222,5627
42224,5616
42226,5605
42228,5599
42230,5593
42232,5583
42234,5571
42236,5563
42238,5549
42240,5533
42242,5518
42244,5505
42246,5487
42248,5467
42249,5450
42251,5434
42253,5418
42255,5400
42257,5384
42260,5368
42262,5345
42264,5322
42266,5301
42268,5281
42270,5256
42272,5233
42274,5210
42276,5185
42278,5151
42280,5126
42281,5104
42283,5085
42285,5062
42287,5044
42289,5026
42291,5002
42293,4972
42295,4942
42297,4908
42299,4873
42301,4836
42303,4801
42305,4768
42307,4731
42309,4696
42311,4663
42312,4633
42314,4603
42316,4575
42318,4547
42320,4519
42322,4494
42324,4468
42326,4448
42328,4429
42330,4408
42332,4385
42334,4367
42336,4342
42338,4320
42340,4295
42342,4276
42343,4257
42345,4243
42347,4229
42349,4216
42351,4201
42353,4186
42355,4173
42357,4161
42359,4151
42361,4141
42363,4135
42365,4124
42367,4115
42369,4105
42371,4093
42373,4080
42374,4066
42376,4055
42378,4045
42380,4036
42382,4023
42385,4013
42387,4006
42389,3999
42391,3991
42393,3986
42395,3977
42397,3965
42399,3950
42401,3938
42403,3924
42405,3914
42406,3905
42408,3902
42410,3900
42412,3894
42414,3884
42416,3879
42418,3869
42420,3857
42422,3843
42424,3828
42426,3813
42428,3798
42430,3784
42432,3774
42434,3760
42436,3748
42437,3739
42439,3733
42441,3727
42443,3717
42445,3712
42447,3705
42449,3694
42451,3681
42453,3664
42455,3651
42457,3634
42459,3621
42461,3611
42463,3604
42465,3597
42467,3588
42468,3579
42470,3571
42472,3558
42474,3544
42476,3531
42478,3518
42480,3502
42482,3487
42484,3474
42486,3458
42488,3446
42490,3433
42492,3424
42494,3411
42496,3397
42498,3382
42499,3368
42501,3352
42503,3334
42505,3322
42507,3315
42510,3304
42512,3298
42514,3284
42516,3273
42518,3257
42520,3242
42522,3227
42524,3217
42526,3209
42528,3200
42530,3194
42531,3187
42533,3178
42535,3168
42537,3158
42539,3143
42541,3129
42543,3113
42545,3101
42547,3085
42549,3077
42551,3069
42553,3061
42555,3054
42557,3047
42559,3036
42561,3024
42562,3013
42564,3001
42566,2992
42568,2981
42570,2968
42572,2956
42574,2946
42576,2932
42578,2926
42580,2918
42582,2913
42584,2905
42586,2897
42588,2885
42590,2870
42592,2848
42593,2832
42595,2815
42597,2800
42599,2788
42601,2779
42603,2774
42605,2763
42607,2751
42609,2743
42611,2736
42613,2727
42615,2718
42617,2710
42619,2704
42621,2693
42623,2680
42624,2666
42626,2658
42628,2646
42630,2635
42632,2626
42635,2619
42637,2610
42639,2604
42641,2599
42643,2592
42645,2588
42647,2576
42649,2567
42651,2558
42653,2542
42655,2532
42656,2523
42658,2514
42660,2510
42662,2507
42664,2500
42666,2491
42668,2475
42670,2458
42672,2438
42674,2420
42676,2403
42678,2394
42680,2386
42682,2383
42684,2384
42686,2383
42687,2387
42689,2393
42691,2399
42693,2399
42695,2402
42697,2393
42699,2384
42701,2381
42703,2375
42705,2369
42707,2367
42709,2363
42711,2354
42713,2345
42715,2334
42717,2322
42718,2314
42720,2307
42722,2299
42724,2297
42726,2287
42728,2272
42730,2256
42732,2236
42734,2211
42736,2187
42738,2154
42740,2123
42742,2086
42744,2061
42746,2042
42748,2030
42749,2020
42751,2018
42753,2017
42755,2014
42757,2008
42760,1999
42762,1992
42764,1984
42766,1979
42768,1976
42770,1971
42772,1965
42774,1959
42776,1958
42778,1952
42780,1948
42781,1946
42783,1942
42785,1936
42787,1931
42789,1926
42791,1925
42793,1924
42795,1921
42797,1919
42799,1912
42801,1902
42803,1890
42805,1882
42807,1875
42809,1870
42811,1863
42812,1863
42814,1860
42816,1854
42818,1845
42820,1839
42822,1839
42824,1849
42826,1875
42828,1915
42830,1967
42832,2026
42834,2083
42836,2130
42838,2165
42840,2185
42842,2193
42843,2188
42845,2164
42847,2109
42849,2019
42851,1888
42853,1718
42855,1525
42857,1327
42859,1140
42861,972
42863,826
42865,707
42867,629
42869,570
42871,517
42873,471
42874,431
42876,388
42878,354
42880,344
42882,373
42885,449
42887,585
42889,771
42891,993
42893,1219
42895,1418
42897,1585
42899,1714
42901,1810
42903,1871
42905,1918
42906,1943
42908,1964
42910,1968
42912,1964
42914,1948
42916,1933
42918,1909
42920,1888
42922,1864
42924,1844
42926,1829
42928,1815
42930,1801
42932,1788
42934,1773
42936,1755
42937,1741
42939,1729
42941,1717
42943,1706
42945,1694
42947,1684
42949,1676
42951,1662
42953,1647
42955,1634
42957,1623
42959,1610
42961,1601
42963,1589
42965,1581
42967,1570
42968,1563
42970,1555
42972,1549
42974,1543
42976,1536
42978,1529
42980,1522
42982,1511
42984,1501
42986,1497
42988,1497
42990,1492
42992,1488
42994,1482
42996,1475
42998,1464
42999,1458
43001,1455
43003,1452
43005,1450
43007,1446
43010,1444
43012,1434
43014,1424
43016,1415
43018,1413
43020,1408
43022,1409
43024,1409
43026,1407
43028,1406
43030,1408
43031,1408
43033,1414
43035,1416
43037,1417
43039,1413
43041,1406
43043,1392
43045,1381
43047,1372
43049,1368
43051,1367
43053,1369
43055,1374
43057,1381
43059,1385
43061,1383
43062,1381
43064,1376
43066,1373
43068,1372
43070,1369
43072,1365
43074,1360
43076,1358
43078,1359
43080,1359
43082,1358
43084,1354
43086,1352
43088,1349
43090,1343
43092,1334
43093,1324
43095,1317
43097,1308
43099,1300
43101,1289
43103,1277
43105,1265
43107,1256
43109,1245
43111,1235
43113,1224
43115,1208
43117,1190
43119,1172
43121,1152
43123,1135
43124,1118
43126,1106
43128,1098
43130,1087
43132,1071
43135,1052
43137,1035
43139,1014
43141,992
43143,971
43145,953
43147,932
43149,911
43151,892
43153,879
43155,862
43156,850
43158,841
43160,834
43162,821
43164,811
43166,804
43168,795
43170,787
43172,777
43174,768
43176,757
43178,745
43180,736
43182,732
43184,727
43186,718
43187,718
43189,714
43191,712
43193,709
43195,710
43197,717
43199,723
43201,724
43203,724
43205,722
43207,714
43209,709
43211,704
43213,706
43215,706
43217,707
43218,714
43220,718
43222,719
43224,721
43226,722
43228,723
43230,722
43232,719
43234,715
43236,711
43238,713
43240,719
43242,726
43244,732
43246,735
43248,736
43249,735
43251,735
43253,731
43255,732
43257,732
43260,727
43262,723
43264,716
43266,705
43268,695
43270,692
43272,690
43274,696
43276,702
43278,707
43280,710
43281,711
43283,706
43285,706
43287,701
43289,701
43291,700
43293,700
43295,696
43297,692
43299,687
43301,681
43303,672
43305,665
43307,661
43309,659
43311,656
43312,651
43314,652
43316,650
43318,650
43320,649
43322,644
43324,638
43326,632
43328,624
43330,619
43332,615
43334,610
43336,610
43338,611
43340,610
43342,610
43343,610
43345,608
43347,601
43349,595
43351,588
43353,583
43355,576
43357,571
43359,569
43361,566
43363,564
43365,566
43367,572
43369,576
43371,573
43373,571
43374,568
43376,558
43378,550
43380,542
43382,540
43385,539
43387,540
43389,540
43391,545
43393,545
43395,541
43397,533
43399,528
43401,517
43403,511
43405,506
43406,507
43408,505
43410,508
43412,513
43414,513
43416,509
43418,499
43420,493
43422,488
43424,486
43426,484
43428,484
43430,485
43432,480
43434,475
43436,472
43437,474
43439,476
43441,482
43443,485
43445,486
43447,477
43449,469
43451,462
43453,458
43455,454
43457,456
43459,464
43461,465
43463,468
43465,470
43467,467
43468,460
43470,457
43472,450
43474,443
43476,438
43478,429
43480,430
43482,433
43484,438
43486,441
43488,452
43490,454
43492,457
43494,457
43496,454
43498,448
43499,443
43501,435
43503,428
43505,423
43507,415
43510,412
43512,419
43514,429
43516,439
43518,447
43520,455
43522,460
43524,460
43526,460
43528,454
43530,455
43531,459
43533,471
43535,479
43537,480
43539,471
43541,463
43543,455
43545,448
43547,442
43549,441
43551,445
43553,452
43555,458
43557,459
43559,453
43561,439
43562,417
43564,394
43566,368
43568,342
43570,316
43572,298
43574,286
43576,282
43578,283
43580,286
43582,291
43584,290
43586,293
43588,297
43590,302
43592,305
43593,310
43595,319
43597,322
43599,319
43601,314
43603,311
43605,302
43607,294
43609,295
43611,292
43613,293
43615,295
43617,298
43619,301
43621,302
43623,298
43624,299
43626,299
43628,295
43630,292
43632,295
43635,293
43637,292
43639,297
43641,298
43643,297
43645,294
43647,290
43649,287
43651,283
43653,284
43655,299
43656,331
43658,374
43660,427
43662,494
43664,552
43666,598
43668,624
43670,640
43672,638
43674,625
43676,595
43678,539
43680,455
43682,335
43684,178
43686,3
43687,-169
43689,-327
43691,-472
43693,-597
43695,-697
43697,-768
43699,-824
43701,-874
43703,-920
43705,-965
43707,-1007
43709,-1037
43711,-1038
43713,-996
43715,-907
43717,-764
43718,-569
43720,-337
43722,-105
43724,103
43726,271
43728,403
43730,496
43732,557
43734,597
43736,625
43738,645
43740,648
43742,644
43744,632
43746,615
43748,591
43749,566
43751,542
43753,523
43755,503
43757,490
43760,478
43762,469
43764,460
43766,454
43768,451
43770,448
43772,441
43774,435
43776,425
43778,410
43780,398
43781,386
43783,378
43785,372
43787,369
43789,367
43791,363
43793,358
43795,355
43797,356
43799,350
43801,346
43803,345
43805,341
43807,331
43809,327
43811,315
43812,309
43814,303
43816,303
43818,302
43820,303
43822,299
43824,300
43826,300
43828,299
43830,297
43832,294
43834,291
43836,286
43838,285
43840,281
43842,279
43843,279
43845,282
43847,285
43849,288
43851,291
43853,295
43855,298
43857,303
43859,308
43861,309
43863,310
43865,304
43867,301
43869,301
43871,298
43873,299
43874,303
43876,311
43878,318
43880,328
43882,334
43885,340
43887,347
43889,351
43891,356
43893,359
43895,361
43897,358
43899,365
43901,367
43903,367
43905,367
43906,367
43908,368
43910,369
43912,364
43914,365
43916,367
43918,368
43920,372
43922,370
43924,365
43926,354
43928,342
43930,328
43932,318
43934,305
43936,296
43937,291
43939,283
43941,280
43943,268
43945,259
43947,253
43949,244
43951,237
43953,230
43955,221
43957,212
43959,198
43961,185
43963,167
43965,149
43967,129
43968,115
43970,100
43972,85
43974,72
43976,62
43978,52
43980,37
43982,23
43984,4
43986,-15
43988,-23
43990,-33
43992,-42
43994,-49
43996,-54
43998,-61
43999,-65
44001,-74
44003,-80
44005,-84
44007,-85
44010,-82
44012,-80
44014,-83
44016,-84
44018,-86
44020,-86
44022,-85
44024,-82
44026,-84
44028,-84
44030,-84
44031,-84
44033,-86
44035,-82
44037,-75
44039,-66
44041,-57
44043,-49
44045,-46
44047,-44
44049,-46
44051,-48
44053,-51
44055,-52
44057,-50
44059,-49
44061,-44
44062,-42
44064,-37
44066,-30
44068,-27
44070,-29
44072,-26
44074,-23
44076,-19
44078,-17
44080,-9
44082,-2
44084,3
44086,7
44088,10
44090,9
44092,5
44093,4
44095,10
44097,15
44099,19
44101,23
44103,25
44105,26
44107,25
44109,22
44111,23
44113,26
44115,26
44117,28
44119,28
44121,25
44123,19
44124,13
44126,11
44128,10
44130,9
44132,5
44135,6
44137,1
44139,-5
44141,-8
44143,-8
44145,-8
44147,-6
44149,-4
44151,-3
44153,-6
44155,-7
44156,-7
44158,-5
44160,-3
44162,0
44164,0
44166,2
44168,-1
44170,-5
44172,-5
44174,-7
44176,-9
44178,-9
44180,-9
44182,-11
44184,-14
44186,-22
44187,-28
44189,-30
44191,-30
44193,-30
44195,-27
44197,-24
44199,-21
44201,-19
44203,-20
44205,-18
44207,-20
44209,-21
44211,-23
44213,-24
44215,-28
44217,-32
44218,-34
44220,-34
44222,-34
44224,-39
44226,-41
44228,-46
44230,-49
44232,-52
44234,-53
44236,-54
44238,-52
44240,-51
44242,-47
44244,-41
44246,-37
44248,-37
44249,-34
44251,-37
44253,-36
44255,-38
44257,-45
44260,-48
44262,-48
44264,-48
44266,-47
44268,-51
44270,-51
44272,-51
44274,-50
44276,-49
44278,-47
44280,-50
44281,-49
44283,-50
44285,-52
44287,-55
44289,-59
44291,-61
44293,-59
44295,-55
44297,-53
44299,-49
44301,-48
44303,-48
44305,-50
44307,-47
44309,-50
44311,-51
44312,-53
44314,-50
44316,-52
44318,-52
44320,-51
44322,-48
44324,-47
44326,-47
44328,-44
44330,-45
44332,-49
44334,-52
44336,-58
44338,-56
44340,-62
44342,-63
44343,-61
44345,-56
44347,-57
44349,-53
44351,-46
44353,-39
44355,-35
44357,-32
44359,-27
44361,-25
44363,-23
44365,-25
44367,-16
44369,-7
44371,5
44373,16
44374,26
44376,30
44378,25
44380,19
44382,11
44385,4
44387,-1
44389,-3
44391,-7
44393,-2
44395,1
44397,2
44399,2
44401,-8
44403,-22
44405,-39
44406,-59
44408,-83
44410,-105
44412,-123
44414,-134
44416,-142
44418,-147
44420,-149
44422,-150
44424,-152
44426,-148
44428,-147
44430,-143
44432,-142
44434,-141
44436,-136
44437,-131
44439,-127
44441,-122
44443,-120
44445,-119
44447,-119
44449,-125
44451,-132
44453,-138
44455,-136
44457,-135
44459,-130
44461,-126
44463,-122
44465,-124
44467,-125
44468,-126
44470,-127
44472,-128
44474,-126
44476,-124
44478,-121
44480,-117
44482,-117
44484,-118
44486,-117
44488,-113
44490,-114
44492,-107
44494,-90
44496,-64
44498,-29
44499,22
44501,78
44503,139
44505,183
44507,211
44510,231
44512,235
44514,219
44516,191
44518,138
44520,48
44522,-77
44524,-237
44526,-415
44528,-589
44530,-744
44531,-877
44533,-982
44535,-1059
44537,-1115
44539,-1160
44541,-1211
44543,-1270
44545,-1336
44547,-1391
44549,-1427
44551,-1423
44553,-1369
44555,-1259
44557,-1097
44559,-880
44561,-640
44562,-407
44564,-209
44566,-54
44568,60
44570,146
44572,204
44574,238
44576,263
44578,279
44580,284
44582,271
44584,257
44586,239
44588,216
44590,199
44592,187
44593,178
44595,172
44597,167
44599,158
44601,151
44603,139
44605,129
44607,121
44609,114
44611,102
44613,95
44615,85
44617,75
44619,70
44621,63
44623,59
44624,57
44626,55
44628,51
44630,43
44632,36
44635,29
44637,22
44639,20
44641,19
44643,19
44645,18
44647,18
44649,13
44651,8
44653,2
44655,-5
44656,-7
44658,-7
44660,-7
44662,-7
44664,-12
44666,-14
44668,-11
44670,-11
44672,-10
44674,-7
44676,-3
44678,-1
44680,0
44682,1
44684,-2
44686,0
44687,-3
44689,2
44691,4
44693,3
44695,-1
44697,6
44699,5
44701,8
44703,8
44705,6
44707,4
44709,1
44711,1
44713,3
44715,9
44717,15
44718,26
44720,37
44722,44
44724,48
44726,54
44728,56
44730,54
44732,55
44734,54
44736,57
44738,58
44740,63
44742,70
44744,78
44746,83
44748,87
44749,91
44751,92
44753,91
44755,87
44757,90
44760,87
44762,90
44764,86
44766,81
44768,72
44770,65
44772,53
44774,45
44776,36
44778,29
44780,17
44781,8
44783,1
44785,-11
44787,-18
44789,-27
44791,-33
44793,-40
44795,-48
44797,-60
44799,-76
44801,-96
44803,-118
44805,-137
44807,-153
44809,-173
44811,-187
44812,-200
44814,-213
44816,-230
44818,-245
44820,-260
44822,-275
44824,-290
44826,-300
44828,-312
44830,-318
44832,-326
44834,-330
44836,-332
44838,-334
44840,-337
44842,-340
44843,-345
44845,-343
44847,-346
44849,-349
44851,-352
44853,-354
44855,-352
44857,-351
44859,-351
44861,-347
44863,-341
44865,-336
44867,-334
44869,-329
44871,-328
44873,-330
44874,-329
44876,-328
44878,-324
44880,-318
44882,-310
44885,-304
44887,-298
44889,-294
44891,-293
44893,-292
44895,-291
44897,-291
44899,-291
44901,-292
44903,-293
44905,-293
44906,-289
44908,-284
44910,-276
44912,-268
44914,-260
44916,-254
44918,-255
44920,-251
44922,-246
44924,-240
44926,-234
44928,-227
44930,-218
44932,-217
44934,-221
44936,-225
44937,-227
44939,-228
44941,-226
44943,-222
44945,-217
44947,-216
44949,-217
44951,-217
44953,-218
44955,-217
44957,-218
44959,-216
44961,-210
44963,-208
44965,-204
44967,-199
44968,-196
44970,-191
44972,-184
44974,-178
44976,-175
44978,-172
44980,-172
44982,-171
44984,-175
44986,-180
44988,-186
44990,-192
44992,-199
44994,-201
44996,-207
44998,-209
44999,-207
45001,-205
45003,-202
45005,-200
45007,-199
45010,-198
45012,-198
45014,-197
45016,-194
45018,-192
45020,-194
45022,-198
45024,-200
45026,-205
45028,-207
45030,-209
45031,-212
45033,-213
45035,-214
45037,-212
45039,-211
45041,-209
45043,-205
45045,-202
45047,-201
45049,-200
45051,-201
45053,-204
45055,-205
45057,-209
45059,-207
45061,-206
45062,-199
45064,-195
45066,-195
45068,-198
45070,-199
45072,-203
45074,-206
45076,-212
45078,-218
45080,-217
45082,-222
45084,-223
45086,-217
45088,-213
45090,-209
45092,-203
45093,-197
45095,-193
45097,-197
45099,-200
45101,-203
45103,-205
45105,-208
45107,-207
45109,-208
45111,-207
45113,-206
45115,-205
45117,-203
45119,-203
45121,-203
45123,-206
45124,-207
45126,-212
45128,-216
45130,-220
45132,-217
45135,-216
45137,-207
45139,-200
45141,-200
45143,-198
45145,-199
45147,-200
45149,-205
45151,-203
45153,-207
45155,-209
45156,-206
45158,-205
45160,-202
45162,-200
45164,-194
45166,-194
45168,-197
45170,-200
45172,-205
45174,-207
45176,-209
45178,-207
45180,-204
45182,-202
45184,-202
45186,-200
45187,-203
45189,-200
45191,-201
45193,-196
45195,-190
45197,-183
45199,-181
45201,-180
45203,-187
45205,-192
45207,-198
45209,-202
45211,-208
45213,-210
45215,-210
45217,-206
45218,-199
45220,-190
45222,-182
45224,-171
45226,-165
45228,-158
45230,-152
45232,-146
45234,-142
45236,-133
45238,-121
45240,-110
45242,-103
45244,-103
45246,-107
45248,-118
45249,-129
45251,-138
45253,-144
45255,-143
45257,-141
45260,-138
45262,-133
45264,-134
45266,-139
45268,-144
45270,-156
45272,-171
45274,-186
45276,-207
45278,-229
45280,-250
45281,-266
45283,-281
45285,-285
45287,-286
45289,-279
45291,-273
45293,-267
45295,-262
45297,-258
45299,-254
45301,-250
45303,-248
45305,-253
45307,-256
45309,-259
45311,-261
45312,-263
45314,-261
45316,-258
45318,-252
45320,-250
45322,-249
45324,-248
45326,-246
45328,-238
45330,-235
45332,-229
45334,-224
45336,-220
45338,-221
45340,-224
45342,-229
45343,-232
45345,-235
45347,-236
45349,-234
45351,-230
45353,-229
45355,-224
45357,-218
45359,-214
45361,-209
45363,-201
45365,-183
45367,-149
45369,-106
45371,-51
45373,13
45374,72
45376,118
45378,152
45380,170
45382,170
45385,152
45387,121
45389,57
45391,-42
45393,-181
45395,-352
45397,-539
45399,-715
45401,-866
45403,-992
45405,-1094
45406,-1170
45408,-1226
45410,-1275
45412,-1331
45414,-1396
45416,-1456
45418,-1508
45420,-1541
45422,-1534
45424,-1476
45426,-1369
45428,-1209
45430,-992
45432,-749
45434,-514
45436,-307
45437,-139
45439,-11
45441,83
45443,151
45445,198
45447,230
45449,247
45451,252
45453,247
45455,234
45457,213
45459,194
45461,179
45463,162
45465,147
45467,135
45468,123
45470,110
45472,98
45474,86
45476,81
45478,74
45480,69
45482,63
45484,58
45486,53
45488,48
45490,42
45492,37
45494,35
45496,30
45498,27
45499,26
45501,25
45503,18
45505,16
45507,11
45510,7
45512,0
45514,-4
45516,-11
45518,-17
45520,-22
45522,-25
45524,-29
45526,-29
45528,-31
45530,-25
45531,-23
45533,-20
45535,-15
45537,-6
45539,-2
45541,0
45543,0
45545,-1
45547,-7
45549,-11
45551,-11
45553,-6
45555,0
45557,10
45559,17
45561,22
45562,28
45564,26
45566,25
45568,20
45570,19
45572,19
45574,19
45576,23
45578,25
45580,32
45582,35
45584,37
45586,42
45588,51
45590,55
45592,62
45593,72
45595,83
45597,91
45599,99
45601,102
45603,109
45605,111
45607,112
45609,115
45611,122
45613,126
45615,129
45617,134
45619,139
45621,140
45623,141
45624,141
45626,141
45628,141
45630,135
45632,134
45635,135
45637,135
45639,133
45641,135
45643,134
45645,134
45647,128
45649,123
45651,115
45653,105
45655,93
45656,85
45658,77
45660,66
45662,56
45664,49
45666,39
45668,26
45670,17
45672,6
45674,-2
45676,-14
45678,-27
45680,-40
45682,-58
45684,-82
45686,-106
45687,-133
45689,-155
45691,-181
45693,-201
45695,-219
45697,-233
45699,-247
45701,-253
45703,-254
45705,-253
45707,-250
45709,-251
45711,-255
45713,-261
45715,-265
45717,-269
45718,-271
45720,-271
45722,-271
45724,-267
45726,-266
45728,-268
45730,-269
45732,-269
45734,-271
45736,-266
45738,-263
45740,-263
45742,-263
45744,-260
45746,-262
45748,-260
45749,-252
45751,-244
45753,-236
45755,-227
45757,-221
45760,-216
45762,-215
45764,-221
45766,-222
45768,-224
45770,-227
45772,-227
45774,-220
45776,-214
45778,-207
45780,-201
45781,-196
45783,-190
45785,-187
45787,-182
45789,-179
45791,-171
45793,-167
45795,-163
45797,-163
45799,-165
45801,-172
45803,-178
45805,-182
45807,-181
45809,-176
45811,-171
45812,-162
45814,-154
45816,-152
45818,-153
45820,-153
45822,-151
45824,-147
45826,-147
45828,-146
45830,-144
45832,-148
45834,-150
45836,-149
45838,-149
45840,-149
45842,-148
45843,-142
45845,-138
45847,-137
45849,-133
45851,-127
45853,-120
45855,-118
45857,-115
45859,-120
45861,-128
45863,-139
45865,-149
45867,-156
45869,-162
45871,-164
45873,-161
45874,-155
45876,-152
45878,-150
45880,-150
45882,-152
45885,-157
45887,-159
45889,-163
45891,-165
45893,-163
45895,-161
45897,-157
45899,-153
45901,-148
45903,-148
45905,-147
45906,-146
45908,-147
45910,-144
45912,-140
45914,-141
45916,-140
45918,-143
45920,-151
45922,-157
45924,-165
45926,-168
45928,-170
45930,-170
45932,-165
45934,-158
45936,-155
45937,-149
45939,-140
45941,-134
45943,-131
45945,-128
45947,-132
45949,-137
45951,-146
45953,-157
45955,-163
45957,-167
45959,-172
45961,-172
45963,-169
45965,-170
45967,-172
45968,-170
45970,-170
45972,-171
45974,-168
45976,-162
45978,-158
45980,-156
45982,-153
45984,-149
45986,-142
45988,-140
45990,-137
45992,-137
45994,-135
45996,-140
45998,-143
45999,-139
46001,-134
46003,-126
46005,-118
46007,-112
46010,-108
46012,-110
46014,-119
46016,-125
46018,-130
46020,-133
46022,-132
46024,-130
46026,-126
46028,-125
46030,-126
46031,-130
46033,-133
46035,-133
46037,-135
46039,-134
46041,-133
46043,-133
46045,-133
46047,-130
46049,-126
46051,-122
46053,-119
46055,-117
46057,-116
46059,-115
46061,-119
46062,-122
46064,-125
46066,-129
46068,-128
46070,-128
46072,-126
46074,-127
46076,-126
46078,-121
46080,-118
46082,-111
46084,-105
46086,-100
46088,-99
46090,-99
46092,-106
46093,-114
46095,-122
46097,-129
46099,-136
46101,-135
46103,-138
46105,-135
46107,-131
46109,-129
46111,-131
46113,-130
46115,-127
46117,-128
46119,-124
46121,-117
46123,-112
46124,-108
46126,-105
46128,-100
46130,-94
46132,-93
46135,-88
46137,-83
46139,-71
46141,-64
46143,-54
46145,-47
46147,-40
46149,-37
46151,-33
46153,-38
46155,-47
46156,-58
46158,-72
46160,-81
46162,-89
46164,-97
46166,-99
46168,-100
46170,-98
46172,-99
46174,-97
46176,-103
46178,-114
46180,-125
46182,-137
46184,-158
46186,-180
46187,-200
46189,-216
46191,-231
46193,-241
46195,-244
46197,-239
46199,-242
46201,-241
46203,-242
46205,-239
46207,-243
46209,-243
46211,-241
46213,-231
46215,-230
46217,-221
46218,-214
46220,-208
46222,-207
46224,-208
46226,-209
46228,-206
46230,-210
46232,-212
46234,-210
46236,-212
46238,-213
46240,-208
46242,-210
46244,-206
46246,-206
46248,-210
46249,-215
46251,-220
46253,-231
46255,-239
46257,-238
46260,-235
46262,-231
46264,-227
46266,-223
46268,-222
46270,-224
46272,-218
46274,-201
46276,-166
46278,-114
46280,-54
46281,15
46283,76
46285,124
46287,152
46289,164
46291,160
46293,143
46295,107
46297,46
46299,-53
46301,-191
46303,-369
46305,-567
46307,-757
46309,-924
46311,-1067
46312,-1184
46314,-1264
46316,-1320
46318,-1365
46320,-1413
46322,-1458
46324,-1506
46326,-1553
46328,-1586
46330,-1586
46332,-1542
46334,-1445
46336,-1295
46338,-1086
46340,-845
46342,-605
46343,-385
46345,-200
46347,-58
46349,41
46351,108
46353,151
46355,174
46357,185
46359,183
46361,176
46363,168
46365,153
46367,140
46369,130
46371,117
46373,103
46374,97
46376,88
46378,81
46380,71
46382,61
46385,47
46387,36
46389,24
46391,13
46393,9
46395,11
46397,10
46399,15
46401,14
46403,8
46405,0
46406,-9
46408,-19
46410,-24
46412,-27
46414,-31
46416,-30
46418,-34
46420,-39
46422,-45
46424,-55
46426,-63
46428,-72
46430,-78
46432,-79
46434,-74
46436,-69
46437,-66
46439,-56
46441,-48
46443,-41
46445,-31
46447,-24
46449,-27
46451,-31
46453,-36
46455,-41
46457,-52
46459,-61
46461,-69
46463,-74
46465,-75
46467,-75
46468,-75
46470,-70
46472,-68
46474,-62
46476,-55
46478,-51
46480,-45
46482,-36
46484,-23
46486,-19
46488,-11
46490,-7
46492,-13
46494,-13
46496,-16
46498,-21
46499,-20
46501,-14
46503,-9
46505,-2
46507,7
46510,13
46512,21
46514,35
46516,43
46518,55
46520,63
46522,69
46524,69
46526,70
46528,66
46530,62
46531,63
46533,66
46535,71
46537,75
46539,73
46541,69
46543,64
46545,56
46547,43
46549,36
46551,33
46553,31
46555,33
46557,40
46559,40
46561,37
46562,25
46564,14
46566,-6
46568,-28
46570,-49
46572,-59
46574,-68
46576,-74
46578,-79
46580,-83
46582,-89
46584,-99
46586,-118
46588,-138
46590,-161
46592,-188
46593,-212
46595,-232
46597,-249
46599,-261
46601,-268
46603,-270
46605,-275
46607,-286
46609,-302
46611,-325
46613,-344
46615,-363
46617,-380
46619,-389
46621,-390
46623,-390
46624,-381
46626,-372
46628,-366
46630,-357
46632,-352
46635,-353
46637,-354
46639,-361
46641,-371
46643,-382
46645,-386
46647,-385
46649,-375
46651,-367
46653,-354
46655,-343
46656,-335
46658,-334
46660,-328
46662,-328
46664,-324
46666,-323
46668,-319
46670,-317
46672,-318
46674,-318
46676,-316
46678,-312
46680,-311
46682,-309
46684,-310
46686,-316
46687,-324
46689,-329
46691,-324
46693,-314
46695,-300
46697,-281
46699,-265
46701,-251
46703,-236
46705,-232
46707,-232
46709,-240
46711,-250
46713,-265
46715,-276
46717,-288
46718,-291
46720,-288
46722,-279
46724,-265
46726,-255
46728,-248
46730,-245
46732,-246
46734,-248
46736,-246
46738,-245
46740,-241
46742,-243
46744,-243
46746,-246
46748,-253
46749,-258
46751,-256
46753,-253
46755,-251
46757,-247
46760,-245
46762,-244
46764,-246
46766,-245
46768,-240
46770,-239
46772,-239
46774,-236
46776,-234
46778,-243
46780,-250
46781,-253
46783,-257
46785,-258
46787,-256
46789,-257
46791,-261
46793,-271
46795,-277
46797,-283
46799,-282
46801,-282
46803,-277
46805,-268
46807,-261
46809,-254
46811,-257
46812,-258
46814,-265
46816,-273
46818,-277
46820,-282
46822,-292
46824,-294
46826,-295
46828,-293
46830,-287
46832,-284
46834,-281
46836,-277
46838,-277
46840,-281
46842,-287
46843,-292
46845,-293
46847,-295
46849,-293
46851,-289
46853,-283
46855,-281
46857,-275
46859,-273
46861,-275
46863,-284
46865,-294
46867,-304
46869,-310
46871,-316
46873,-313
46874,-309
46876,-302
46878,-294
46880,-286
46882,-286
46885,-289
46887,-291
46889,-300
46891,-304
46893,-306
46895,-303
46897,-300
46899,-293
46901,-286
46903,-282
46905,-282
46906,-284
46908,-283
46910,-282
46912,-282
46914,-282
46916,-280
46918,-280
46920,-282
46922,-290
46924,-301
46926,-315
46928,-332
46930,-341
46932,-340
46934,-337
46936,-329
46937,-319
46939,-306
46941,-297
46943,-287
46945,-281
46947,-278
46949,-277
46951,-281
46953,-286
46955,-292
46957,-301
46959,-308
46961,-311
46963,-308
46965,-303
46967,-296
46968,-292
46970,-294
46972,-294
46974,-296
46976,-297
46978,-293
46980,-287
46982,-283
46984,-283
46986,-288
46988,-297
46990,-309
46992,-323
46994,-327
46996,-329
46998,-325
46999,-319
47001,-314
47003,-309
47005,-298
47007,-287
47010,-272
47012,-258
47014,-250
47016,-248
47018,-251
47020,-260
47022,-270
47024,-276
47026,-281
47028,-280
47030,-271
47031,-255
47033,-243
47035,-225
47037,-207
47039,-189
47041,-179
47043,-178
47045,-190
47047,-204
47049,-223
47051,-238
47053,-244
47055,-246
47057,-245
47059,-241
47061,-234
47062,-233
47064,-237
47066,-245
47068,-253
47070,-258
47072,-262
47074,-269
47076,-276
47078,-288
47080,-298
47082,-309
47084,-321
47086,-336
47088,-351
47090,-367
47092,-378
47093,-381
47095,-385
47097,-388
47099,-391
47101,-392
47103,-389
47105,-387
47107,-388
47109,-386
47111,-383
47113,-375
47115,-369
47117,-362
47119,-356
47121,-355
47123,-358
47124,-349
47126,-342
47128,-334
47130,-326
47132,-322
47135,-319
47137,-321
47139,-328
47141,-336
47143,-337
47145,-338
47147,-337
47149,-332
47151,-328
47153,-330
47155,-336
47156,-338
47158,-340
47160,-339
47162,-340
47164,-329
47166,-320
47168,-315
47170,-306
47172,-283
47174,-252
47176,-208
47178,-159
47180,-104
47182,-53
47184,-7
47186,25
47187,56
47189,78
47191,86
47193,79
47195,46
47197,-32
47199,-144
47201,-298
47203,-478
47205,-666
47207,-840
47209,-994
47211,-1122
47213,-1224
47215,-1297
47217,-1342
47218,-1378
47220,-1412
47222,-1445
47224,-1475
47226,-1508
47228,-1519
47230,-1498
47232,-1429
47234,-1311
47236,-1146
47238,-944
47240,-728
47242,-533
47244,-361
47246,-227
47248,-121
47249,-47
47251,8
47253,48
47255,78
47257,92
47260,94
47262,90
47264,82
47266,71
47268,60
47270,49
47272,36
47274,25
47276,13
47278,3
47280,-11
47281,-26
47283,-38
47285,-50
47287,-62
47289,-74
47291,-84
47293,-86
47295,-87
47297,-86
47299,-86
47301,-86
47303,-91
47305,-95
47307,-97
47309,-101
47311,-105
47312,-112
47314,-115
47316,-122
47318,-128
47320,-133
47322,-130
47324,-131
47326,-133
47328,-137
47330,-147
47332,-155
47334,-161
47336,-160
47338,-156
47340,-147
47342,-138
47343,-128
47345,-124
47347,-124
47349,-127
47351,-130
47353,-137
47355,-142
47357,-146
47359,-147
47361,-150
47363,-151
47365,-151
47367,-147
47369,-147
47371,-141
47373,-137
47374,-138
47376,-139
47378,-136
47380,-131
47382,-124
47385,-122
47387,-118
47389,-113
47391,-110
47393,-111
47395,-109
47397,-113
47399,-115
47401,-121
47403,-127
47405,-132
47406,-135
47408,-133
47410,-123
47412,-111
47414,-96
47416,-79
47418,-64
47420,-57
47422,-56
47424,-62
47426,-70
47428,-75
47430,-77
47432,-74
47434,-68
47436,-61
47437,-55
47439,-49
47441,-51
47443,-55
47445,-55
47447,-63
47449,-71
47451,-80
47453,-93
47455,-112
47457,-123
47459,-135
47461,-141
47463,-148
47465,-155
47467,-164
47468,-179
47470,-202
47472,-224
47474,-246
47476,-266
47478,-278
47480,-285
47482,-288
47484,-295
47486,-303
47488,-311
47490,-322
47492,-333
47494,-343
47496,-353
47498,-362
47499,-368
47501,-371
47503,-381
47505,-392
47507,-405
47510,-423
47512,-444
47514,-465
47516,-481
47518,-491
47520,-497
47522,-498
47524,-491
47526,-489
47528,-490
47530,-495
47531,-495
47533,-497
47535,-499
47537,-497
47539,-495
47541,-491
47543,-488
47545,-485
47547,-482
47549,-484
47551,-483
47553,-481
47555,-480
47557,-476
47559,-475
47561,-477
47562,-480
47564,-477
47566,-475
47568,-473
47570,-467
47572,-464
47574,-458
47576,-452
47578,-444
47580,-437
47582,-430
47584,-425
47586,-419
47588,-414
47590,-413
47592,-413
47593,-412
47595,-407
47597,-400
47599,-393
47601,-383
47603,-378
47605,-372
47607,-366
47609,-365
47611,-366
47613,-366
47615,-370
47617,-371
47619,-376
47621,-380
47623,-381
47624,-378
47626,-374
47628,-368
47630,-358
47632,-352
47635,-346
47637,-338
47639,-330
47641,-331
47643,-334
47645,-339
47647,-344
47649,-344
47651,-342
47653,-339
47655,-337
47656,-330
47658,-327
47660,-323
47662,-318
47664,-319
47666,-319
47668,-318
47670,-318
47672,-316
47674,-318
47676,-320
47678,-323
47680,-320
47682,-317
47684,-317
47686,-321
47687,-320
47689,-325
47691,-328
47693,-333
47695,-330
47697,-325
47699,-322
47701,-324
47703,-319
47705,-322
47707,-327
47709,-330
47711,-335
47713,-338
47715,-340
47717,-346
47718,-345
47720,-340
47722,-337
47724,-336
47726,-331
47728,-324
47730,-328
47732,-331
47734,-335
47736,-340
47738,-346
47740,-356
47742,-355
47744,-351
47746,-352
47748,-355
47749,-353
47751,-348
47753,-350
47755,-349
47757,-352
47760,-354
47762,-364
47764,-370
47766,-372
47768,-377
47770,-383
47772,-386
47774,-382
47776,-378
47778,-378
47780,-379
47781,-380
47783,-382
47785,-381
47787,-381
47789,-379
47791,-378
47793,-378
47795,-377
47797,-374
47799,-374
47801,-379
47803,-383
47805,-382
47807,-382
47809,-381
47811,-379
47812,-382
47814,-389
47816,-396
47818,-405
47820,-411
47822,-414
47824,-416
47826,-418
47828,-412
47830,-410
47832,-408
47834,-406
47836,-407
47838,-411
47840,-415
47842,-422
47843,-426
47845,-428
47847,-433
47849,-436
47851,-437
47853,-435
47855,-428
47857,-423
47859,-421
47861,-420
47863,-424
47865,-431
47867,-436
47869,-436
47871,-443
47873,-448
47874,-445
47876,-444
47878,-445
47880,-453
47882,-464
47885,-474
47887,-478
47889,-477
47891,-476
47893,-465
47895,-457
47897,-455
47899,-452
47901,-453
47903,-461
47905,-463
47906,-461
47908,-449
47910,-431
47912,-409
47914,-385
47916,-362
47918,-350
47920,-339
47922,-335
47924,-334
47926,-343
47928,-354
47930,-364
47932,-380
47934,-400
47936,-418
47937,-429
47939,-439
47941,-447
47943,-447
47945,-440
47947,-438
47949,-433
47951,-430
47953,-423
47955,-427
47957,-433
47959,-446
47961,-463
47963,-487
47965,-509
47967,-525
47968,-535
47970,-542
47972,-540
47974,-535
47976,-530
47978,-530
47980,-531
47982,-533
47984,-533
47986,-536
47988,-530
47990,-520
47992,-502
47994,-484
47996,-467
47998,-458
47999,-453
48001,-455
48003,-456
48005,-460
48007,-465
48010,-475
48012,-479
48014,-479
48016,-483
48018,-483
48020,-487
48022,-490
48024,-491
48026,-490
48028,-485
48030,-471
48031,-461
48033,-454
48035,-454
48037,-456
48039,-459
48041,-461
48043,-459
48045,-450
48047,-426
48049,-385
48051,-339
48053,-286
48055,-234
48057,-178
48059,-133
48061,-92
48062,-60
48064,-37
48066,-30
48068,-39
48070,-76
48072,-142
48074,-253
48076,-393
48078,-561
48080,-731
48082,-893
48084,-1033
48086,-1156
48088,-1256
48090,-1331
48092,-1384
48093,-1427
48095,-1462
48097,-1495
48099,-1527
48101,-1554
48103,-1564
48105,-1549
48107,-1492
48109,-1388
48111,-1237
48113,-1036
48115,-816
48117,-593
48119,-394
48121,-232
48123,-104
48124,-10
48126,53
48128,88
48130,109
48132,114
48135,105
48137,84
48139,62
48141,39
48143,16
48145,-6
48147,-22
48149,-33
48151,-43
48153,-50
48155,-56
48156,-66
48158,-78
48160,-87
48162,-91
48164,-89
48166,-90
48168,-92
48170,-96
48172,-98
48174,-101
48176,-105
48178,-111
48180,-111
48182,-108
48184,-105
48186,-100
48187,-93
48189,-82
48191,-75
48193,-72
48195,-68
48197,-69
48199,-78
48201,-84
48203,-91
48205,-94
48207,-89
48209,-82
48211,-73
48213,-62
48215,-59
48217,-63
48218,-68
48220,-66
48222,-64
48224,-55
48226,-47
48228,-39
48230,-31
48232,-28
48234,-28
48236,-29
48238,-29
48240,-37
48242,-38
48244,-37
48246,-37
48248,-34
48249,-26
48251,-22
48253,-15
48255,-11
48257,-2
48260,9
48262,16
48264,21
48266,25
48268,32
48270,30
48272,32
48274,33
48276,36
48278,39
48280,46
48281,54
48283,63
48285,67
48287,71
48289,70
48291,75
48293,77
48295,83
48297,91
48299,99
48301,107
48303,116
48305,122
48307,125
48309,129
48311,131
48312,131
48314,129
48316,131
48318,133
48320,134
48322,126
48324,117
48326,110
48328,108
48330,100
48332,94
48334,92
48336,84
48338,68
48340,58
48342,40
48343,24
48345,7
48347,-7
48349,-14
48351,-23
48353,-30
48355,-36
48357,-38
48359,-37
48361,-42
48363,-50
48365,-63
48367,-81
48369,-99
48371,-119
48373,-136
48374,-151
48376,-162
48378,-173
48380,-181
48382,-194
48385,-209
48387,-222
48389,-231
48391,-242
48393,-245
48395,-247
48397,-242
48399,-238
48401,-229
48403,-224
48405,-222
48406,-220
48408,-220
48410,-224
48412,-233
48414,-237
48416,-236
48418,-235
48420,-234
48422,-229
48424,-225
48426,-227
48428,-229
48430,-231
48432,-231
48434,-230
48436,-229
48437,-221
48439,-212
48441,-199
48443,-193
48445,-186
48447,-181
48449,-180
48451,-183
48453,-187
48455,-188
48457,-184
48459,-185
48461,-179
48463,-172
48465,-167
48467,-160
48468,-154
48470,-149
48472,-144
48474,-143
48476,-137
48478,-133
48480,-127
48482,-125
48484,-123
48486,-122
48488,-124
48490,-124
48492,-127
48494,-129
48496,-130
48498,-130
48499,-126
48501,-124
48503,-123
48505,-117
48507,-113
48510,-111
48512,-106
48514,-105
48516,-106
48518,-110
48520,-114
48522,-116
48524,-112
48526,-109
48528,-104
48530,-103
48531,-101
48533,-108
48535,-109
48537,-106
48539,-102
48541,-98
48543,-94
48545,-95
48547,-97
48549,-103
48551,-109
48553,-116
48555,-117
48557,-111
48559,-109
48561,-103
48562,-101
48564,-106
48566,-109
48568,-107
48570,-105
48572,-103
48574,-102
48576,-106
48578,-108
48580,-102
48582,-95
48584,-93
48586,-88
48588,-83
48590,-81
48592,-85
48593,-95
48595,-111
48597,-124
48599,-132
48601,-141
48603,-145
48605,-147
48607,-152
48609,-155
48611,-150
48613,-144
48615,-136
48617,-131
48619,-131
48621,-130
48623,-131
48624,-137
48626,-143
48628,-143
48630,-143
48632,-140
48635,-133
48637,-133
48639,-134
48641,-135
48643,-133
48645,-132
48647,-133
48649,-132
48651,-135
48653,-139
48655,-144
48656,-147
48658,-149
48660,-153
48662,-154
48664,-157
48666,-157
48668,-156
48670,-153
48672,-147
48674,-141
48676,-138
48678,-136
48680,-137
48682,-139
48684,-143
48686,-142
48687,-141
48689,-134
48691,-129
48693,-128
48695,-130
48697,-137
48699,-148
48701,-149
48703,-144
48705,-137
48707,-132
48709,-124
48711,-126
48713,-131
48715,-139
48717,-146
48718,-148
48720,-143
48722,-136
48724,-128
48726,-129
48728,-136
48730,-148
48732,-157
48734,-169
48736,-175
48738,-171
48740,-165
48742,-155
48744,-140
48746,-124
48748,-113
48749,-98
48751,-89
48753,-88
48755,-89
48757,-105
48760,-116
48762,-121
48764,-123
48766,-119
48768,-112
48770,-108
48772,-109
48774,-105
48776,-108
48778,-109
48780,-104
48781,-100
48783,-95
48785,-85
48787,-80
48789,-82
48791,-86
48793,-97
48795,-115
48797,-138
48799,-161
48801,-187
48803,-212
48805,-231
48807,-243
48809,-248
48811,-246
48812,-243
48814,-232
48816,-225
48818,-218
48820,-209
48822,-196
48824,-191
48826,-186
48828,-180
48830,-179
48832,-180
48834,-181
48836,-181
48838,-179
48840,-179
48842,-179
48843,-173
48845,-168
48847,-167
48849,-166
48851,-165
48853,-164
48855,-162
48857,-160
48859,-159
48861,-159
48863,-158
48865,-156
48867,-150
48869,-147
48871,-144
48873,-140
48874,-134
48876,-130
48878,-132
48880,-134
48882,-127
48885,-107
48887,-78
48889,-34
48891,20
48893,80
48895,129
48897,166
48899,192
48901,210
48903,212
48905,194
48906,157
48908,83
48910,-30
48912,-180
48914,-357
48916,-537
48918,-703
48920,-848
48922,-960
48924,-1047
48926,-1104
48928,-1147
48930,-1183
48932,-1222
48934,-1267
48936,-1312
48937,-1347
48939,-1356
48941,-1326
48943,-1245
48945,-1110
48947,-932
48949,-717
48951,-495
48953,-294
48955,-124
48957,10
48959,99
48961,167
48963,209
48965,231
48967,236
48968,236
48970,224
48972,210
48974,192
48976,174
48978,158
48980,146
48982,130
48984,118
48986,109
48988,100
48990,92
48992,86
48994,77
48996,67
48998,59
48999,53
49001,50
49003,45
49005,40
49007,35
49010,29
49012,25
49014,19
49016,12
49018,5
49020,2
49022,1
49024,-5
49026,-6
49028,-9
49030,-14
49031,-15
49033,-18
49035,-19
49037,-22
49039,-26
49041,-29
49043,-33
49045,-32
49047,-30
49049,-23
49051,-25
49053,-29
49055,-34
49057,-45
49059,-56
49061,-63
49062,-72
49064,-69
49066,-66
49068,-60
49070,-55
49072,-54
49074,-60
49076,-61
49078,-58
49080,-56
49082,-53
49084,-51
49086,-52
49088,-55
49090,-59
49092,-71
49093,-78
49095,-80
49097,-82
49099,-78
49101,-75
49103,-76
49105,-79
49107,-78
49109,-81
49111,-82
49113,-84
49115,-85
49117,-87
49119,-84
49121,-83
49123,-77
49124,-75
49126,-68
49128,-62
49130,-56
49132,-56
49135,-55
49137,-55
49139,-56
49141,-59
49143,-62
49145,-69
49147,-76
49149,-89
49151,-98
49153,-108
49155,-117
49156,-124
49158,-127
49160,-133
49162,-140
49164,-146
49166,-157
49168,-166
49170,-179
49172,-192
49174,-203
49176,-218
49178,-233
49180,-247
49182,-261
49184,-277
49186,-291
49187,-307
49189,-322
49191,-336
49193,-355
49195,-369
49197,-382
49199,-394
49201,-406
49203,-418
49205,-433
49207,-449
49209,-469
49211,-489
49213,-510
49215,-524
49217,-538
49218,-550
49220,-558
49222,-565
49224,-574
49226,-578
49228,-587
49230,-596
49232,-604
49234,-610
49236,-616
49238,-615
49240,-615
49242,-607
49244,-600
49246,-594
49248,-594
49249,-592
49251,-596
49253,-604
49255,-608
49257,-609
49260,-609
49262,-607
49264,-604
49266,-599
49268,-595
49270,-590
49272,-591
49274,-588
49276,-588
49278,-586
49280,-583
49281,-579
49283,-577
49285,-574
49287,-572
49289,-567
49291,-564
49293,-559
49295,-561
49297,-561
49299,-560
49301,-558
49303,-555
49305,-551
49307,-546
49309,-544
49311,-541
49312,-541
49314,-541
49316,-544
49318,-544
49320,-541
49322,-536
49324,-532
49326,-524
49328,-519
49330,-512
49332,-508
49334,-503
49336,-505
49338,-505
49340,-511
49342,-516
49343,-522
49345,-527
49347,-530
49349,-534
49351,-539
49353,-538
49355,-536
49357,-534
49359,-531
49361,-526
49363,-520
49365,-518
49367,-517
49369,-522
49371,-528
49373,-537
49374,-548
49376,-553
49378,-558
49380,-562
49382,-564
49385,-564
49387,-563
49389,-564
49391,-564
49393,-567
49395,-567
49397,-570
49399,-575
49401,-583
49403,-589
49405,-594
49406,-596
49408,-595
49410,-592
49412,-593
49414,-594
49416,-599
49418,-605
49420,-612
49422,-614
49424,-615
49426,-619
49428,-620
49430,-623
49432,-625
49434,-630
49436,-633
49437,-634
49439,-633
49441,-632
49443,-629
49445,-625
49447,-622
49449,-622
49451,-625
49453,-625
49455,-629
49457,-636
49459,-637
49461,-638
49463,-635
49465,-631
49467,-623
49468,-617
49470,-608
49472,-607
49474,-606
49476,-608
49478,-611
49480,-613
49482,-612
49484,-609
49486,-609
49488,-607
49490,-606
49492,-608
49494,-611
49496,-609
49498,-607
49499,-600
49501,-592
49503,-584
49505,-576
49507,-572
49510,-570
49512,-566
49514,-563
49516,-564
49518,-564
49520,-562
49522,-560
49524,-558
49526,-551
49528,-551
49530,-549
49531,-544
49533,-539
49535,-536
49537,-532
49539,-528
49541,-523
49543,-517
49545,-519
49547,-517
49549,-519
49551,-528
49553,-537
49555,-541
49557,-546
49559,-546
49561,-538
49562,-529
49564,-515
49566,-498
49568,-483
49570,-470
49572,-455
49574,-446
49576,-445
49578,-444
49580,-441
49582,-442
49584,-441
49586,-438
49588,-437
49590,-435
49592,-434
49593,-431
49595,-427
49597,-426
49599,-420
49601,-408
49603,-394
49605,-384
49607,-376
49609,-378
49611,-386
49613,-405
49615,-420
49617,-439
49619,-458
49621,-478
49623,-489
49624,-493
49626,-493
49628,-487
49630,-478
49632,-469
49635,-459
49637,-452
49639,-445
49641,-440
49643,-438
49645,-434
49647,-428
49649,-420
49651,-412
49653,-408
49655,-400
49656,-392
49658,-391
49660,-382
49662,-374
49664,-366
49666,-362
49668,-358
49670,-357
49672,-354
49674,-356
49676,-360
49678,-357
49680,-354
49682,-346
49684,-338
49686,-328
49687,-322
49689,-314
49691,-312
49693,-310
49695,-312
49697,-314
49699,-315
49701,-307
49703,-283
49705,-246
49707,-196
49709,-134
49711,-67
49713,-8
49715,38
49717,66
49718,89
49720,98
49722,93
49724,69
49726,14
49728,-80
49730,-206
49732,-373
49734,-548
49736,-720
49738,-879
49740,-1018
49742,-1136
49744,-1231
49746,-1297
49748,-1352
49749,-1404
49751,-1447
49753,-1486
49755,-1523
49757,-1543
49760,-1534
49762,-1482
49764,-1387
49766,-1240
49768,-1048
49770,-827
49772,-614
49774,-429
49776,-278
49778,-166
49780,-89
49781,-31
49783,5
49785,29
49787,42
49789,46
49791,41
49793,31
49795,17
49797,1
49799,-14
49801,-26
49803,-41
49805,-50
49807,-67
49809,-83
49811,-96
49812,-107
49814,-121
49816,-131
49818,-139
49820,-144
49822,-155
49824,-162
49826,-164
49828,-168
49830,-170
49832,-174
49834,-178
49836,-184
49838,-192
49840,-198
49842,-206
49843,-209
49845,-211
49847,-212
49849,-212
49851,-212
49853,-216
49855,-219
49857,-224
49859,-228
49861,-231
49863,-231
49865,-235
49867,-234
49869,-236
49871,-236
49873,-239
49874,-239
49876,-241
49878,-240
49880,-242
49882,-245
49885,-247
49887,-247
49889,-246
49891,-249
49893,-246
49895,-242
49897,-242
49899,-236
49901,-232
49903,-225
49905,-219
49906,-214
49908,-207
49910,-200
49912,-197
49914,-200
49916,-198
49918,-195
49920,-190
49922,-182
49924,-172
49926,-161
49928,-156
49930,-148
49932,-145
49934,-140
49936,-135
49937,-127
49939,-116
49941,-106
49943,-99
49945,-92
49947,-88
49949,-86
49951,-82
49953,-78
49955,-73
49957,-72
49959,-63
49961,-58
49963,-54
49965,-52
49967,-50
49968,-51
49970,-49
49972,-49
49974,-49
49976,-50
49978,-53
49980,-57
49982,-60
49984,-67
49986,-78
49988,-87
49990,-95
49992,-109
49994,-118
49996,-128
49998,-140
49999,-157
50001,-167
50003,-184
50005,-195
50007,-208
50010,-215
50012,-224
50014,-233
50016,-249
50018,-264
50020,-284
50022,-303
50024,-323
50026,-339
50028,-354
50030,-363
50031,-369
50033,-379
50035,-386
50037,-389
50039,-395
50041,-405
50043,-412
50045,-419
50047,-430
50049,-441
50051,-450
50053,-456
50055,-458
50057,-461
50059,-456
50061,-450
50062,-444
50064,-436
50066,-428
50068,-426
50070,-420
50072,-418
50074,-420
50076,-427
50078,-431
50080,-434
50082,-433
50084,-429
50086,-418
50088,-405
50090,-392
50092,-380
50093,-372
50095,-365
50097,-362
50099,-362
50101,-360
50103,-357
50105,-355
50107,-353
50109,-350
50111,-348
50113,-342
50115,-338
50117,-336
50119,-331
50121,-330
50123,-328
50124,-323
50126,-316
50128,-312
50130,-306
50132,-301
50135,-296
50137,-293
50139,-293
50141,-293
50143,-289
50145,-289
50147,-290
50149,-286
50151,-287
50153,-285
50155,-284
50156,-280
50158,-273
50160,-269
50162,-266
50164,-257
50166,-254
50168,-255
50170,-259
50172,-258
50174,-260
50176,-260
50178,-260
50180,-259
50182,-260
50184,-260
50186,-256
50187,-253
50189,-252
50191,-250
50193,-247
50195,-245
50197,-244
50199,-247
50201,-241
50203,-240
50205,-237
50207,-232
50209,-228
50211,-229
50213,-233
50215,-233
50217,-235
50218,-234
50220,-233
50222,-234
50224,-232
50226,-234
50228,-236
50230,-231
50232,-229
50234,-227
50236,-225
50238,-228
50240,-227
50242,-229
50244,-232
50246,-233
50248,-231
50249,-232
50251,-230
50253,-230
50255,-227
50257,-229
50260,-229
50262,-233
50264,-227
50266,-226
50268,-228
50270,-230
50272,-235
50274,-240
50276,-246
50278,-251
50280,-254
50281,-256
50283,-254
50285,-247
50287,-243
50289,-241
50291,-237
50293,-231
50295,-228
50297,-230
50299,-233
50301,-232
50303,-230
50305,-226
50307,-217
50309,-211
50311,-205
50312,-202
50314,-196
50316,-198
50318,-199
50320,-197
50322,-191
50324,-184
50326,-178
50328,-172
50330,-170
50332,-173
50334,-174
50336,-177
50338,-178
50340,-179
50342,-175
50343,-168
50345,-160
50347,-154
50349,-148
50351,-140
50353,-138
50355,-139
50357,-142
50359,-151
50361,-159
50363,-165
50365,-167
50367,-170
50369,-169
50371,-164
50373,-156
50374,-145
50376,-135
50378,-124
50380,-107
50382,-93
50385,-82
50387,-80
50389,-87
50391,-96
50393,-106
50395,-120
50397,-128
50399,-136
50401,-142
50403,-148
50405,-149
50406,-147
50408,-149
50410,-150
50412,-147
50414,-143
50416,-143
50418,-145
50420,-154
50422,-169
50424,-185
50426,-208
50428,-230
50430,-254
50432,-275
50434,-292
50436,-303
50437,-308
50439,-307
50441,-298
50443,-290
50445,-279
50447,-270
50449,-262
50451,-252
50453,-244
50455,-231
50457,-222
50459,-210
50461,-204
50463,-198
50465,-198
50467,-195
50468,-199
50470,-199
50472,-203
50474,-200
50476,-204
50478,-203
50480,-205
50482,-205
50484,-203
50486,-199
50488,-190
50490,-179
50492,-170
50494,-163
50496,-159
50498,-159
50499,-156
50501,-155
50503,-155
50505,-154
50507,-155
50510,-158
50512,-158
50514,-144
50516,-114
50518,-69
50520,-12
50522,48
50524,108
50526,155
50528,190
50530,215
50531,228
50533,229
50535,212
50537,165
50539,79
50541,-43
50543,-214
50545,-403
50547,-596
50549,-769
50551,-930
50553,-1071
50555,-1182
50557,-1262
50559,-1323
50561,-1370
50562,-1403
50564,-1423
50566,-1441
50568,-1442
50570,-1418
50572,-1369
50574,-1285
50576,-1159
50578,-989
50580,-786
50582,-582
50584,-396
50586,-239
50588,-112
50590,-13
50592,63
50593,119
50595,158
50597,192
50599,211
50601,214
50603,205
50605,195
50607,179
50609,159
50611,145
50613,128
50615,112
50617,100
50619,91
50621,82
50623,77
50624,72
50626,71
50628,71
50630,67
50632,59
50635,51
50637,48
50639,38
50641,31
50643,23
50645,14
50647,2
50649,-7
50651,-16
50653,-26
50655,-34
50656,-38
50658,-40
50660,-39
50662,-39
50664,-41
50666,-43
50668,-48
50670,-56
50672,-66
50674,-77
50676,-91
50678,-103
50680,-107
50682,-110
50684,-107
50686,-104
50687,-98
50689,-92
50691,-90
50693,-96
50695,-102
50697,-106
50699,-112
50701,-116
50703,-116
50705,-110
50707,-106
50709,-98
50711,-98
50713,-93
50715,-97
50717,-102
50718,-104
50720,-103
50722,-99
50724,-92
50726,-76
50728,-64
50730,-54
50732,-47
50734,-47
50736,-50
50738,-53
50740,-59
50742,-64
50744,-61
50746,-59
50748,-56
50749,-47
50751,-41
50753,-34
50755,-24
50757,-12
50760,4
50762,13
50764,18
50766,18
50768,19
50770,13
50772,3
50774,-1
50776,-9
50778,-13
50780,-15
50781,-13
50783,-15
50785,-14
50787,-9
50789,-9
50791,-14
50793,-20
50795,-31
50797,-41
50799,-58
50801,-76
50803,-90
50805,-106
50807,-121
50809,-133
50811,-142
50812,-154
50814,-164
50816,-170
50818,-171
50820,-173
50822,-181
50824,-190
50826,-203
50828,-225
50830,-246
50832,-267
50834,-285
50836,-304
50838,-324
50840,-337
50842,-353
50843,-367
50845,-379
50847,-388
50849,-396
50851,-400
50853,-397
50855,-392
50857,-392
50859,-393
50861,-392
50863,-393
50865,-401
50867,-410
50869,-417
50871,-427
50873,-438
50874,-445
50876,-447
50878,-448
50880,-443
50882,-431
50885,-418
50887,-403
50889,-392
50891,-382
50893,-378
50895,-378
50897,-382
50899,-386
50901,-390
50903,-394
50905,-397
50906,-394
50908,-388
50910,-383
50912,-378
50914,-374
50916,-368
50918,-359
50920,-354
50922,-342
50924,-331
50926,-323
50928,-320
50930,-327
50932,-346
50934,-371
50936,-400
50937,-421
50939,-425
50941,-415
50943,-387
50945,-351
50947,-312
50949,-279
50951,-253
50953,-242
50955,-246
50957,-256
50959,-270
50961,-282
50963,-294
50965,-302
50967,-302
50968,-303
50970,-303
50972,-302
50974,-298
50976,-303
50978,-309
50980,-316
50982,-323
50984,-330
50986,-341
50988,-346
50990,-354
50992,-367
50994,-375
50996,-381
50998,-386
50999,-389
51001,-387
51003,-384
51005,-385
51007,-386
51010,-388
51012,-389
51014,-397
51016,-405
51018,-410
51020,-414
51022,-419
51024,-421
51026,-419
51028,-422
51030,-426
51031,-431
51033,-432
51035,-438
51037,-446
51039,-446
51041,-442
51043,-433
51045,-426
51047,-420
51049,-418
51051,-423
51053,-436
51055,-449
51057,-469
51059,-489
51061,-508
51062,-522
51064,-526
51066,-533
51068,-534
51070,-531
51072,-527
51074,-526
51076,-526
51078,-527
51080,-534
51082,-537
51084,-537
51086,-538
51088,-537
51090,-540
51092,-547
51093,-549
51095,-552
51097,-551
51099,-546
51101,-530
51103,-511
51105,-483
51107,-448
51109,-419
51111,-390
51113,-366
51115,-348
51117,-335
51119,-320
51121,-312
51123,-307
51124,-294
51126,-285
51128,-278
51130,-266
51132,-251
51135,-242
51137,-238
51139,-234
51141,-232
51143,-230
51145,-225
51147,-219
51149,-210
51151,-201
51153,-193
51155,-182
51156,-173
51158,-171
51160,-163
51162,-153
51164,-146
51166,-144
51168,-138
51170,-135
51172,-132
51174,-128
51176,-120
51178,-107
51180,-93
51182,-83
51184,-75
51186,-72
51187,-73
51189,-76
51191,-72
51193,-66
51195,-58
51197,-47
51199,-46
51201,-48
51203,-52
51205,-53
51207,-51
51209,-47
51211,-39
51213,-29
51215,-17
51217,-8
51218,0
51220,6
51222,1
51224,-10
51226,-21
51228,-40
51230,-67
51232,-95
51234,-127
51236,-153
51238,-171
51240,-178
51242,-179
51244,-169
51246,-159
51248,-152
51249,-144
51251,-141
51253,-147
51255,-151
51257,-157
51260,-159
51262,-160
51264,-159
51266,-160
51268,-159
51270,-161
51272,-167
51274,-175
51276,-183
51278,-184
51280,-178
51281,-166
51283,-151
51285,-135
51287,-121
51289,-106
51291,-97
51293,-96
51295,-95
51297,-97
51299,-100
51301,-101
51303,-101
51305,-101
51307,-101
51309,-98
51311,-88
51312,-73
51314,-51
51316,-21
51318,22
51320,68
51322,122
51324,179
51326,227
51328,269
51330,299
51332,319
51334,329
51336,315
51338,283
51340,222
51342,122
51343,-16
51345,-192
51347,-386
51349,-582
51351,-766
51353,-929
51355,-1060
51357,-1151
51359,-1213
51361,-1247
51363,-1271
51365,-1291
51367,-1316
51369,-1339
51371,-1354
51373,-1348
51374,-1307
51376,-1213
51378,-1069
51380,-884
51382,-677
51385,-478
51387,-297
51389,-147
51391,-27
51393,66
51395,135
51397,182
51399,219
51401,241
51403,245
51405,235
51406,215
51408,194
51410,166
51412,138
51414,108
51416,79
51418,58
51420,52
51422,53
51424,67
51426,82
51428,94
51430,98
51432,88
51434,66
51436,35
51437,4
51439,-20
51441,-35
51443,-38
51445,-27
51447,-8
51449,16
51451,38
51453,56
51455,67
51457,71
51459,63
51461,53
51463,45
51465,36
51467,27
51468,24
51470,20
51472,17
51474,12
51476,6
51478,1
51480,-7
51482,-13
51484,-20
51486,-24
51488,-26
51490,-31
51492,-30
51494,-35
51496,-41
51498,-50
51499,-62
51501,-86
51503,-108
51505,-129
51507,-151
51510,-165
51512,-171
51514,-174
51516,-170
51518,-160
51520,-145
51522,-122
51524,-99
51526,-82
51528,-58
51530,-39
51531,-30
51533,-30
51535,-33
51537,-42
51539,-51
51541,-62
51543,-70
51545,-76
51547,-83
51549,-95
51551,-104
51553,-114
51555,-122
51557,-128
51559,-129
51561,-122
51562,-106
51564,-88
51566,-68
51568,-46
51570,-32
51572,-31
51574,-35
51576,-43
51578,-55
51580,-68
51582,-74
51584,-79
51586,-78
51588,-79
51590,-84
51592,-86
51593,-89
51595,-93
51597,-101
51599,-107
51601,-114
51603,-123
51605,-129
51607,-141
51609,-154
51611,-165
51613,-174
51615,-184
51617,-194
51619,-200
51621,-206
51623,-216
51624,-217
51626,-222
51628,-230
51630,-237
51632,-243
51635,-246
51637,-248
51639,-248
51641,-246
51643,-241
51645,-242
51647,-245
51649,-244
51651,-248
51653,-256
51655,-262
51656,-266
51658,-267
51660,-270
51662,-270
51664,-267
51666,-268
51668,-266
51670,-257
51672,-248
51674,-238
51676,-232
51678,-221
51680,-210
51682,-197
51684,-193
51686,-184
51687,-181
51689,-178
51691,-179
51693,-181
51695,-178
51697,-179
51699,-174
51701,-164
51703,-153
51705,-142
51707,-133
51709,-126
51711,-124
51713,-121
51715,-122
51717,-124
51718,-116
51720,-104
51722,-92
51724,-81
51726,-68
51728,-65
51730,-61
51732,-64
51734,-61
51736,-65
51738,-64
51740,-62
51742,-54
51744,-50
51746,-42
51748,-38
51749,-31
51751,-25
51753,-21
51755,-24
51757,-26
51760,-37
51762,-40
51764,-44
51766,-47
51768,-50
51770,-49
51772,-49
51774,-49
51776,-50
51778,-54
51780,-57
51781,-58
51783,-56
51785,-56
51787,-55
51789,-56
51791,-54
51793,-56
51795,-58
51797,-60
51799,-62
51801,-64
51803,-65
51805,-67
51807,-67
51809,-69
51811,-73
51812,-76
51814,-76
51816,-70
51818,-66
51820,-57
51822,-49
51824,-39
51826,-36
51828,-36
51830,-36
51832,-42
51834,-47
51836,-51
51838,-51
51840,-51
51842,-52
51843,-48
51845,-39
51847,-36
51849,-33
51851,-29
51853,-21
51855,-16
51857,-10
51859,-9
51861,-11
51863,-9
51865,-12
51867,-9
51869,-7
51871,-4
51873,-5
51874,-4
51876,-4
51878,-7
51880,-8
51882,-10
51885,-14
51887,-8
51889,-2
51891,2
51893,6
51895,4
51897,1
51899,-3
51901,-3
51903,-1
51905,3
51906,5
51908,9
51910,16
51912,21
51914,24
51916,21
51918,15
51920,11
51922,7
51924,6
51926,5
51928,5
51930,6
51932,7
51934,4
51936,5
51937,7
51939,9
51941,14
51943,23
51945,32
51947,38
51949,42
51951,39
51953,33
51955,27
51957,22
51959,17
51961,19
51963,25
51965,31
51967,40
51968,52
51970,60
51972,67
51974,65
51976,62
51978,58
51980,54
51982,54
51984,62
51986,72
51988,80
51990,82
51992,83
51994,71
51996,61
51998,47
51999,34
52001,31
52003,33
52005,30
52007,35
52010,41
52012,40
52014,31
52016,21
52018,1
52020,-23
52022,-50
52024,-73
52026,-90
52028,-106
52030,-117
52031,-120
52033,-121
52035,-114
52037,-112
52039,-102
52041,-93
52043,-79
52045,-67
52047,-52
52049,-31
52051,-19
52053,-5
52055,4
52057,10
52059,8
52061,4
52062,-1
52064,-1
52066,2
52068,6
52070,8
52072,13
52074,17
52076,18
52078,22
52080,22
52082,23
52084,24
52086,30
52088,32
52090,37
52092,44
52093,49
52095,56
52097,60
52099,59
52101,65
52103,76
52105,102
52107,143
52109,200
52111,264
52113,321
52115,369
52117,402
52119,423
52121,425
52123,409
52124,373
52126,310
52128,214
52130,84
52132,-79
52135,-258
52137,-432
52139,-592
52141,-728
52143,-844
52145,-941
52147,-1010
52149,-1061
52151,-1112
52153,-1156
52155,-1198
52156,-1238
52158,-1265
52160,-1267
52162,-1231
52164,-1146
52166,-1012
52168,-832
52170,-620
52172,-411
52174,-226
52176,-75
52178,35
52180,114
52182,166
52184,198
52186,218
52187,234
52189,237
52191,229
52193,212
52195,193
52197,168
52199,143
52201,114
52203,92
52205,72
52207,52
52209,38
52211,22
52213,7
52215,-9
52217,-25
52218,-36
52220,-48
52222,-63
52224,-73
52226,-76
52228,-79
52230,-81
52232,-80
52234,-79
52236,-84
52238,-93
52240,-107
52242,-118
52244,-132
52246,-144
52248,-155
52249,-158
52251,-164
52253,-169
52255,-168
52257,-164
52260,-167
52262,-171
52264,-170
52266,-171
52268,-168
52270,-164
52272,-154
52274,-142
52276,-135
52278,-132
52280,-126
52281,-123
52283,-129
52285,-134
52287,-134
52289,-137
52291,-143
52293,-146
52295,-153
52297,-165
52299,-172
52301,-177
52303,-177
52305,-172
52307,-165
52309,-157
52311,-150
52312,-147
52314,-149
52316,-151
52318,-156
52320,-161
52322,-161
52324,-156
52326,-153
52328,-152
52330,-153
52332,-149
52334,-147
52336,-147
52338,-147
52340,-150
52342,-150
52343,-144
52345,-137
52347,-129
52349,-121
52351,-109
52353,-97
52355,-87
52357,-83
52359,-84
52361,-86
52363,-94
52365,-105
52367,-111
52369,-113
52371,-117
52373,-111
52374,-111
52376,-107
52378,-110
52380,-120
52382,-129
52385,-137
52387,-145
52389,-148
52391,-148
52393,-152
52395,-154
52397,-164
52399,-179
52401,-199
52403,-221
52405,-247
52406,-271
52408,-291
52410,-314
52412,-335
52414,-356
52416,-379
52418,-403
52420,-422
52422,-443
52424,-460
52426,-475
52428,-491
52430,-510
52432,-526
52434,-545
52436,-562
52437,-576
52439,-586
52441,-592
52443,-594
52445,-594
52447,-599
52449,-603
52451,-611
52453,-619
52455,-627
52457,-637
52459,-643
52461,-644
52463,-643
52465,-639
52467,-631
52468,-619
52470,-616
52472,-618
52474,-625
52476,-638
52478,-661
52480,-677
52482,-688
52484,-695
52486,-702
52488,-697
52490,-693
52492,-691
52494,-690
52496,-686
52498,-681
52499,-677
52501,-674
52503,-670
52505,-665
52507,-660
52510,-653
52512,-641
52514,-632
52516,-629
52518,-626
52520,-623
52522,-628
52524,-633
52526,-637
52528,-634
52530,-631
52531,-624
52533,-615
52535,-605
52537,-607
52539,-608
52541,-611
52543,-621
52545,-634
52547,-650
52549,-663
52551,-675
52553,-689
52555,-696
52557,-700
52559,-709
52561,-712
52562,-719
52564,-721
52566,-730
52568,-739
52570,-749
52572,-755
52574,-761
52576,-765
52578,-764
52580,-759
52582,-752
52584,-740
52586,-728
52588,-712
52590,-699
52592,-695
52593,-687
52595,-680
52597,-673
52599,-666
52601,-648
52603,-630
52605,-609
52607,-591
52609,-576
52611,-568
52613,-562
52615,-561
52617,-561
52619,-557
52621,-554
52623,-550
52624,-542
52626,-532
52628,-522
52630,-511
52632,-498
52635,-489
52637,-484
52639,-483
52641,-479
52643,-478
52645,-479
52647,-471
52649,-467
52651,-464
52653,-463
52655,-462
52656,-466
52658,-465
52660,-463
52662,-455
52664,-444
52666,-428
52668,-418
52670,-409
52672,-405
52674,-401
52676,-402
52678,-404
52680,-408
52682,-412
52684,-412
52686,-409
52687,-406
52689,-402
52691,-399
52693,-395
52695,-392
52697,-389
52699,-387
52701,-387
52703,-386
52705,-385
52707,-381
52709,-380
52711,-379
52713,-383
52715,-383
52717,-381
52718,-375
52720,-366
52722,-356
52724,-347
52726,-341
52728,-336
52730,-334
52732,-338
52734,-343
52736,-347
52738,-348
52740,-343
52742,-339
52744,-331
52746,-326
52748,-323
52749,-318
52751,-313
52753,-317
52755,-320
52757,-320
52760,-317
52762,-314
52764,-303
52766,-286
52768,-268
52770,-257
52772,-256
52774,-258
52776,-262
52778,-269
52780,-275
52781,-273
52783,-264
52785,-253
52787,-243
52789,-235
52791,-234
52793,-245
52795,-263
52797,-283
52799,-309
52801,-339
52803,-364
52805,-384
52807,-394
52809,-399
52811,-399
52812,-392
52814,-382
52816,-376
52818,-368
52820,-362
52822,-361
52824,-359
52826,-353
52828,-348
52830,-345
52832,-344
52834,-345
52836,-347
52838,-350
52840,-357
52842,-367
52843,-370
52845,-369
52847,-367
52849,-363
52851,-352
52853,-350
52855,-349
52857,-347
52859,-349
52861,-349
52863,-354
52865,-363
52867,-363
52869,-363
52871,-366
52873,-367
52874,-364
52876,-363
52878,-362
52880,-359
52882,-349
52885,-322
52887,-282
52889,-227
52891,-164
52893,-98
52895,-41
52897,0
52899,23
52901,39
52903,41
52905,26
52906,-2
52908,-56
52910,-144
52912,-272
52914,-433
52916,-607
52918,-775
52920,-931
52922,-1066
52924,-1175
52926,-1261
52928,-1318
52930,-1360
52932,-1399
52934,-1436
52936,-1476
52937,-1510
52939,-1519
52941,-1501
52943,-1438
52945,-1320
52947,-1154
52949,-945
52951,-715
52953,-498
52955,-316
52957,-172
52959,-65
52961,18
52963,80
52965,127
52967,164
52968,195
52970,205
52972,197
52974,179
52976,153
52978,123
52980,94
52982,69
52984,49
52986,34
52988,22
52990,14
52992,9
52994,7
52996,6
52998,4
52999,5
53001,9
53003,8
53005,10
53007,10
53010,4
53012,-2
53014,-10
53016,-22
53018,-36
53020,-52
53022,-63
53024,-67
53026,-66
53028,-63
53030,-61
53031,-57
53033,-60
53035,-62
53037,-69
53039,-73
53041,-74
53043,-82
53045,-88
53047,-90
53049,-93
53051,-94
53053,-94
53055,-94
53057,-94
53059,-94
53061,-100
53062,-104
53064,-105
53066,-109
53068,-110
53070,-114
53072,-119
53074,-129
53076,-138
53078,-148
53080,-154
53082,-150
53084,-141
53086,-125
53088,-110
53090,-103
53092,-102
53093,-106
53095,-113
53097,-121
53099,-128
53101,-130
53103,-132
53105,-129
53107,-130
53109,-132
53111,-133
53113,-129
53115,-130
53117,-125
53119,-119
53121,-113
53123,-110
53124,-106
53126,-100
53128,-97
53130,-92
53132,-84
53135,-75
53137,-67
53139,-60
53141,-48
53143,-32
53145,-24
53147,-14
53149,-6
53151,-2
53153,-7
53155,-9
53156,-14
53158,-19
53160,-25
53162,-24
53164,-16
53166,-10
53168,-11
53170,-9
53172,-14
53174,-20
53176,-33
53178,-45
53180,-53
53182,-63
53184,-75
53186,-82
53187,-93
53189,-104
53191,-124
53193,-144
53195,-168
53197,-186
53199,-206
53201,-220
53203,-231
53205,-244
53207,-257
53209,-268
53211,-283
53213,-298
53215,-314
53217,-326
53218,-337
53220,-343
53222,-351
53224,-352
53226,-358
53228,-361
53230,-361
53232,-360
53234,-363
53236,-368
53238,-368
53240,-367
53242,-364
53244,-356
53246,-346
53248,-338
53249,-327
53251,-318
53253,-319
53255,-321
53257,-331
53260,-335
53262,-335
53264,-337
53266,-337
53268,-330
53270,-328
53272,-331
53274,-332
53276,-337
53278,-346
53280,-350
53281,-354
53283,-356
53285,-353
53287,-352
53289,-353
53291,-344
53293,-341
53295,-336
53297,-330
53299,-328
53301,-327
53303,-330
53305,-332
53307,-332
53309,-327
53311,-323
53312,-321
53314,-318
53316,-321
53318,-327
53320,-325
53322,-326
53324,-319
53326,-308
53328,-295
53330,-286
53332,-284
53334,-288
53336,-296
53338,-307
53340,-314
53342,-314
53343,-312
53345,-305
53347,-302
53349,-300
53351,-301
53353,-305
53355,-311
53357,-316
53359,-319
53361,-321
53363,-322
53365,-319
53367,-313
53369,-309
53371,-306
53373,-300
53374,-296
53376,-298
53378,-302
53380,-305
53382,-308
53385,-312
53387,-315
53389,-317
53391,-324
53393,-327
53395,-337
53397,-343
53399,-346
53401,-348
53403,-348
53405,-342
53406,-336
53408,-332
53410,-328
53412,-329
53414,-331
53416,-335
53418,-340
53420,-345
53422,-343
53424,-341
53426,-337
53428,-331
53430,-329
53432,-333
53434,-337
53436,-349
53437,-365
53439,-385
53441,-402
53443,-417
53445,-431
53447,-443
53449,-458
53451,-474
53453,-491
53455,-505
53457,-516
53459,-523
53461,-528
53463,-525
53465,-520
53467,-518
53468,-522
53470,-527
53472,-535
53474,-546
53476,-557
53478,-573
53480,-591
53482,-613
53484,-631
53486,-643
53488,-653
53490,-658
53492,-660
53494,-651
53496,-647
53498,-642
53499,-642
53501,-632
53503,-625
53505,-615
53507,-609
53510,-607
53512,-613
53514,-621
53516,-634
53518,-643
53520,-653
53522,-656
53524,-657
53526,-645
53528,-631
53530,-612
53531,-588
53533,-562
53535,-539
53537,-522
53539,-510
53541,-504
53543,-500
53545,-494
53547,-488
53549,-473
53551,-463
53553,-449
53555,-433
53557,-413
53559,-392
53561,-377
53562,-359
53564,-342
53566,-330
53568,-329
53570,-328
53572,-337
53574,-356
53576,-377
53578,-401
53580,-425
53582,-447
53584,-462
53586,-471
53588,-464
53590,-460
53592,-453
53593,-446
53595,-442
53597,-445
53599,-442
53601,-446
53603,-449
53605,-451
53607,-448
53609,-447
53611,-446
53613,-445
53615,-445
53617,-446
53619,-446
53621,-451
53623,-449
53624,-447
53626,-441
53628,-433
53630,-426
53632,-425
53635,-422
53637,-415
53639,-410
53641,-408
53643,-408
53645,-405
53647,-404
53649,-407
53651,-411
53653,-412
53655,-414
53656,-412
53658,-406
53660,-393
53662,-382
53664,-372
53666,-358
53668,-327
53670,-288
53672,-243
53674,-187
53676,-132
53678,-85
53680,-42
53682,-15
53684,4
53686,16
53687,14
53689,-8
53691,-59
53693,-151
53695,-276
53697,-432
53699,-608
53701,-777
53703,-929
53705,-1060
53707,-1162
53709,-1236
53711,-1284
53713,-1326
53715,-1368
53717,-1416
53718,-1467
53720,-1515
53722,-1542
53724,-1529
53726,-1458
53728,-1333
53730,-1157
53732,-939
53734,-703
53736,-487
53738,-301
53740,-152
53742,-39
53744,46
53746,111
53748,153
53749,181
53751,188
53753,181
53755,167
53757,153
53760,139
53762,127
53764,118
53766,114
53768,98
53770,87
53772,70
53774,52
53776,37
53778,32
53780,32
53781,38
53783,42
53785,44
53787,45
53789,42
53791,31
53793,21
53795,3
53797,-9
53799,-19
53801,-24
53803,-26
53805,-18
53807,-11
53809,1
53811,12
53812,21
53814,21
53816,15
53818,11
53820,-1
53822,-6
53824,-11
53826,-16
53828,-19
53830,-17
53832,-18
53834,-24
53836,-27
53838,-32
53840,-41
53842,-45
53843,-46
53845,-42
53847,-35
53849,-27
53851,-22
53853,-17
53855,-17
53857,-21
53859,-27
53861,-29
53863,-31
53865,-32
53867,-29
53869,-29
53871,-36
53873,-46
53874,-52
53876,-56
53878,-51
53880,-42
53882,-27
53885,-5
53887,15
53889,33
53891,46
53893,53
53895,49
53897,41
53899,35
53901,26
53903,14
53905,12
53906,13
53908,23
53910,33
53912,47
53914,60
53916,72
53918,79
53920,83
53922,87
53924,82
53926,69
53928,58
53930,50
53932,42
53934,40
53936,49
53937,72
53939,102
53941,127
53943,140
53945,138
53947,110
53949,68
53951,18
53953,-31
53955,-69
53957,-94
53959,-109
53961,-115
53963,-112
53965,-113
53967,-117
53968,-124
53970,-133
53972,-146
53974,-159
53976,-176
53978,-189
53980,-207
53982,-226
53984,-246
53986,-265
53988,-284
53990,-308
53992,-332
53994,-354
53996,-375
53998,-392
53999,-402
54001,-403
54003,-406
54005,-404
54007,-406
54010,-407
54012,-408
54014,-412
54016,-421
54018,-429
54020,-431
54022,-433
54024,-437
54026,-436
54028,-432
54030,-429
54031,-423
54033,-411
54035,-403
54037,-400
54039,-402
54041,-404
54043,-406
54045,-407
54047,-402
54049,-402
54051,-393
54053,-390
54055,-386
54057,-386
54059,-387
54061,-392
54062,-391
54064,-384
54066,-378
54068,-368
54070,-357
54072,-347
54074,-334
54076,-322
54078,-314
54080,-306
54082,-303
54084,-298
54086,-292
54088,-285
54090,-282
54092,-275
54093,-267
54095,-258
54097,-255
54099,-250
54101,-242
54103,-239
54105,-232
54107,-225
54109,-219
54111,-211
54113,-203
54115,-195
54117,-182
54119,-171
54121,-164
54123,-159
54124,-153
54126,-154
54128,-160
54130,-160
54132,-162
54135,-164
54137,-159
54139,-154
54141,-149
54143,-143
54145,-144
54147,-145
54149,-143
54151,-144
54153,-144
54155,-139
54156,-134
54158,-128
54160,-119
54162,-109
54164,-102
54166,-100
54168,-97
54170,-94
54172,-92
54174,-96
54176,-94
54178,-94
54180,-94
54182,-97
54184,-91
54186,-87
54187,-79
54189,-79
54191,-75
54193,-75
54195,-79
54197,-86
54199,-92
54201,-99
54203,-104
54205,-102
54207,-94
54209,-85
54211,-76
54213,-71
54215,-71
54217,-74
54218,-77
54220,-77
54222,-77
54224,-77
54226,-71
54228,-66
54230,-60
54232,-62
54234,-63
54236,-70
54238,-73
54240,-79
54242,-79
54244,-80
54246,-80
54248,-76
54249,-70
54251,-63
54253,-58
54255,-56
54257,-58
54260,-61
54262,-66
54264,-71
54266,-72
54268,-71
54270,-64
54272,-59
54274,-52
54276,-49
54278,-47
54280,-45
54281,-45
54283,-43
54285,-43
54287,-46
54289,-49
54291,-57
54293,-64
54295,-68
54297,-69
54299,-68
54301,-62
54303,-51
54305,-33
54307,-16
54309,3
54311,19
54312,30
54314,35
54316,34
54318,26
54320,17
54322,5
54324,-2
54326,5
54328,7
54330,6
54332,6
54334,5
54336,3
54338,2
54340,2
54342,7
54343,16
54345,22
54347,27
54349,29
54351,16
54353,-5
54355,-24
54357,-44
54359,-66
54361,-85
54363,-107
54365,-118
54367,-122
54369,-121
54371,-116
54373,-110
54374,-103
54376,-96
54378,-94
54380,-90
54382,-90
54385,-89
54387,-87
54389,-84
54391,-81
54393,-80
54395,-78
54397,-79
54399,-77
54401,-76
54403,-77
54405,-75
54406,-71
54408,-66
54410,-59
54412,-58
54414,-56
54416,-56
54418,-57
54420,-59
54422,-61
54424,-62
54426,-65
54428,-65
54430,-65
54432,-67
54434,-71
54436,-76
54437,-78
54439,-77
54441,-74
54443,-66
54445,-42
54447,1
54449,51
54451,116
54453,181
54455,235
54457,275
54459,298
54461,307
54463,306
54465,284
54467,245
54468,185
54470,93
54472,-31
54474,-181
54476,-344
54478,-500
54480,-650
54482,-785
54484,-903
54486,-995
54488,-1065
54490,-1124
54492,-1174
54494,-1214
54496,-1259
54498,-1297
54499,-1317
54501,-1306
54503,-1255
54505,-1146
54507,-981
54510,-765
54512,-533
54514,-312
54516,-119
54518,32
54520,145
54522,228
54524,289
54526,335
54528,370
54530,398
54531,407
54533,402
54535,388
54537,368
54539,342
54541,320
54543,303
54545,288
54547,280
54549,275
54551,268
54553,258
54555,245
54557,229
54559,220
54561,205
54562,192
54564,181
54566,172
54568,164
54570,161
54572,160
54574,166
54576,174
54578,183
54580,195
54582,204
54584,208
54586,205
54588,199
54590,187
54592,177
54593,171
54595,167
54597,170
54599,177
54601,184
54603,190
54605,193
54607,191
54609,188
54611,186
54613,185
54615,186
54617,184
54619,179
54621,170
54623,159
54624,151
54626,150
54628,153
54630,160
54632,167
54635,173
54637,175
54639,169
54641,164
54643,160
54645,158
54647,156
54649,160
54651,164
54653,166
54655,171
54656,172
54658,174
54660,174
54662,174
54664,179
54666,181
54668,184
54670,191
54672,199
54674,205
54676,209
54678,211
54680,211
54682,209
54684,206
54686,208
54687,210
54689,214
54691,220
54693,228
54695,235
54697,241
54699,243
54701,248
54703,254
54705,259
54707,266
54709,270
54711,271
54713,266
54715,261
54717,247
54718,236
54720,225
54722,209
54724,197
54726,185
54728,170
54730,160
54732,148
54734,133
54736,113
54738,87
54740,56
54742,34
54744,21
54746,19
54748,29
54749,43
54751,57
54753,69
54755,67
54757,46
54760,18
54762,-13
54764,-42
54766,-64
54768,-81
54770,-93
54772,-107
54774,-122
54776,-132
54778,-144
54780,-161
54781,-169
54783,-182
54785,-186
54787,-187
54789,-188
54791,-186
54793,-182
54795,-181
54797,-176
54799,-169
54801,-168
54803,-168
54805,-169
54807,-171
54809,-178
54811,-179
54812,-184
54814,-185
54816,-186
54818,-193
54820,-197
54822,-200
54824,-202
54826,-202
54828,-199
54830,-198
54832,-195
54834,-198
54836,-197
54838,-203
54840,-214
54842,-226
54843,-232
54845,-233
54847,-232
54849,-224
54851,-208
54853,-190
54855,-177
54857,-167
54859,-165
54861,-166
54863,-175
54865,-183
54867,-185
54869,-185
54871,-186
54873,-184
54874,-184
54876,-186
54878,-192
54880,-196
54882,-197
54885,-196
54887,-194
54889,-196
54891,-196
54893,-201
54895,-208
54897,-215
54899,-223
54901,-229
54903,-234
54905,-237
54906,-239
54908,-240
54910,-245
54912,-248
54914,-253
54916,-260
54918,-269
54920,-278
54922,-284
54924,-287
54926,-287
54928,-286
54930,-281
54932,-277
54934,-273
54936,-272
54937,-273
54939,-278
54941,-284
54943,-293
54945,-297
54947,-299
54949,-299
54951,-302
54953,-300
54955,-305
54957,-306
54959,-312
54961,-318
54963,-325
54965,-333
54967,-340
54968,-342
54970,-342
54972,-342
54974,-343
54976,-342
54978,-343
54980,-343
54982,-348
54984,-348
54986,-347
54988,-343
54990,-339
54992,-334
54994,-332
54996,-335
54998,-337
54999,-341
55001,-342
55003,-343
55005,-342
55007,-338
55010,-329
55012,-323
55014,-321
55016,-317
55018,-318
55020,-321
55022,-325
55024,-331
55026,-336
55028,-340
55030,-342
55031,-342
55033,-341
55035,-341
55037,-342
55039,-339
55041,-340
55043,-335
55045,-335
55047,-331
55049,-325
55051,-321
55053,-322
55055,-323
55057,-333
55059,-342
55061,-351
55062,-358
55064,-363
55066,-366
55068,-366
55070,-360
55072,-358
55074,-350
55076,-343
55078,-330
55080,-319
55082,-305
55084,-299
55086,-297
55088,-298
55090,-303
55092,-306
55093,-307
55095,-307
55097,-304
55099,-304
55101,-301
55103,-297
55105,-291
55107,-281
55109,-267
55111,-252
55113,-243
55115,-238
55117,-241
55119,-249
55121,-266
55123,-290
55124,-314
55126,-337
55128,-356
55130,-376
55132,-391
55135,-400
55137,-397
55139,-392
55141,-383
55143,-375
55145,-368
55147,-364
55149,-358
55151,-353
55153,-347
55155,-344
55156,-342
55158,-341
55160,-341
55162,-340
55164,-338
55166,-329
55168,-318
55170,-305
55172,-293
55174,-282
55176,-278
55178,-275
55180,-279
55182,-283
55184,-287
55186,-291
55187,-289
55189,-282
55191,-278
55193,-277
55195,-275
55197,-274
55199,-275
55201,-279
55203,-282
55205,-284
55207,-283
55209,-279
55211,-269
55213,-242
55215,-204
55217,-158
55218,-96
55220,-28
55222,33
55224,84
55226,119
55228,140
55230,143
55232,125
55234,79
55236,2
55238,-116
55240,-274
55242,-463
55244,-666
55246,-862
55248,-1036
55249,-1183
55251,-1304
55253,-1399
55255,-1465
55257,-1515
55260,-1558
55262,-1597
55264,-1633
55266,-1660
55268,-1668
55270,-1643
55272,-1579
55274,-1466
55276,-1304
55278,-1097
55280,-861
55281,-622
55283,-406
55285,-222
55287,-78
55289,32
55291,114
55293,165
55295,192
55297,203
55299,201
55301,187
55303,169
55305,153
55307,139
55309,124
55311,109
55312,95
55314,83
55316,70
55318,54
55320,37
55322,24
55324,8
55326,-2
55328,-11
55330,-15
55332,-18
55334,-20
55336,-24
55338,-27
55340,-35
55342,-44
55343,-52
55345,-56
55347,-60
55349,-59
55351,-59
55353,-58
55355,-56
55357,-57
55359,-59
55361,-63
55363,-62
55365,-65
55367,-66
55369,-68
55371,-70
55373,-73
55374,-76
55376,-77
55378,-79
55380,-81
55382,-83
55385,-85
55387,-89
55389,-94
55391,-98
55393,-96
55395,-96
55397,-94
55399,-90
55401,-88
55403,-91
55405,-91
55406,-90
55408,-91
55410,-90
55412,-91
55414,-95
55416,-96
55418,-104
55420,-109
55422,-109
55424,-106
55426,-103
55428,-95
55430,-88
55432,-79
55434,-77
55436,-76
55437,-75
55439,-69
55441,-70
55443,-63
55445,-56
55447,-47
55449,-37
55451,-30
55453,-20
55455,-14
55457,-10
55459,-8
55461,-7
55463,-3
55465,2
55467,5
55468,12
55470,18
55472,24
55474,24
55476,21
55478,13
55480,4
55482,-2
55484,-6
55486,-9
55488,-10
55490,-12
55492,-15
55494,-22
55496,-32
55498,-42
55499,-54
55501,-64
55503,-75
55505,-86
55507,-99
55510,-111
55512,-124
55514,-139
55516,-154
55518,-172
55520,-193
55522,-214
55524,-236
55526,-254
55528,-272
55530,-285
55531,-293
55533,-304
55535,-317
55537,-330
55539,-345
55541,-361
55543,-376
55545,-391
55547,-400
55549,-406
55551,-412
55553,-415
55555,-418
55557,-421
55559,-426
55561,-432
55562,-434
55564,-434
55566,-436
55568,-437
55570,-435
55572,-432
55574,-431
55576,-429
55578,-428
55580,-424
55582,-424
55584,-421
55586,-418
55588,-413
55590,-406
55592,-399
55593,-390
55595,-377
55597,-370
55599,-363
55601,-361
55603,-369
55605,-381
55607,-395
55609,-407
55611,-414
55613,-412
55615,-409
55617,-401
55619,-388
55621,-376
55623,-364
55624,-350
55626,-333
55628,-320
55630,-301
55632,-286
55635,-272
55637,-268
55639,-266
55641,-269
55643,-272
55645,-271
55647,-267
55649,-261
55651,-256
55653,-251
55655,-248
55656,-249
55658,-252
55660,-253
55662,-256
55664,-255
55666,-253
55668,-247
55670,-241
55672,-233
55674,-229
55676,-221
55678,-220
55680,-218
55682,-221
55684,-222
55686,-224
55687,-228
55689,-226
55691,-218
55693,-206
55695,-195
55697,-187
55699,-182
55701,-184
55703,-192
55705,-198
55707,-199
55709,-195
55711,-187
55713,-182
55715,-176
55717,-176
55718,-178
55720,-185
55722,-187
55724,-188
55726,-185
55728,-180
55730,-179
55732,-180
55734,-183
55736,-185
55738,-191
55740,-193
55742,-197
55744,-196
55746,-199
55748,-200
55749,-194
55751,-193
55753,-191
55755,-187
55757,-185
55760,-185
55762,-187
55764,-190
55766,-193
55768,-186
55770,-185
55772,-178
55774,-174
55776,-170
55778,-175
55780,-182
55781,-188
55783,-192
55785,-200
55787,-206
55789,-209
55791,-208
55793,-214
55795,-213
55797,-213
55799,-208
55801,-204
55803,-200
55805,-197
55807,-195
55809,-200
55811,-206
55812,-213
55814,-220
55816,-227
55818,-229
55820,-227
55822,-225
55824,-224
55826,-217
55828,-209
55830,-203
55832,-195
55834,-189
55836,-185
55838,-179
55840,-175
55842,-173
55843,-173
55845,-175
55847,-178
55849,-183
55851,-191
55853,-206
55855,-216
55857,-221
55859,-221
55861,-207
55863,-189
55865,-162
55867,-135
55869,-113
55871,-98
55873,-93
55874,-100
55876,-119
55878,-146
55880,-178
55882,-213
55885,-249
55887,-278
55889,-304
55891,-324
55893,-333
55895,-338
55897,-341
55899,-339
55901,-339
55903,-339
55905,-342
55906,-340
55908,-340
55910,-336
55912,-332
55914,-325
55916,-311
55918,-302
55920,-297
55922,-297
55924,-298
55926,-309
55928,-318
55930,-323
55932,-322
55934,-323
55936,-320
55937,-316
55939,-314
55941,-314
55943,-316
55945,-317
55947,-315
55949,-313
55951,-310
55953,-305
55955,-304
55957,-309
55959,-312
55961,-318
55963,-325
55965,-333
55967,-332
55968,-315
55970,-284
55972,-236
55974,-168
55976,-88
55978,-7
55980,67
55982,123
55984,158
55986,174
55988,170
55990,142
55992,87
55994,-7
55996,-141
55998,-313
55999,-517
56001,-725
56003,-929
56005,-1110
56007,-1271
56010,-1411
56012,-1515
56014,-1589
56016,-1647
56018,-1685
56020,-1712
56022,-1731
56024,-1741
56026,-1731
56028,-1688
56030,-1604
56031,-1476
56033,-1304
56035,-1082
56037,-833
56039,-590
56041,-377
56043,-197
56045,-54
56047,55
56049,139
56051,197
56053,240
56055,266
56057,277
56059,279
56061,278
56062,269
56064,257
56066,244
56068,230
56070,209
56072,189
56074,166
56076,132
56078,101
56080,73
56082,56
56084,43
56086,40
56088,45
56090,52
56092,56
56093,59
56095,57
56097,55
56099,47
56101,41
56103,37
56105,37
56107,31
56109,29
56111,33
56113,34
56115,32
56117,28
56119,22
56121,12
56123,-1
56124,-8
56126,-6
56128,-1
56130,9
56132,18
56135,28
56137,32
56139,31
56141,25
56143,22
56145,16
56147,9
56149,4
56151,0
56153,-4
56155,-8
56156,-15
56158,-20
56160,-27
56162,-33
56164,-36
56166,-35
56168,-34
56170,-33
56172,-27
56174,-24
56176,-27
56178,-30
56180,-36
56182,-41
56184,-44
56186,-40
56187,-36
56189,-30
56191,-21
56193,-13
56195,-5
56197,-5
56199,-5
56201,-6
56203,-4
56205,3
56207,16
56209,26
56211,44
56213,57
56215,71
56217,80
56218,84
56220,86
56222,85
56224,83
56226,82
56228,81
56230,80
56232,77
56234,79
56236,74
56238,74
56240,69
56242,55
56244,48
56246,34
56248,19
56249,9
56251,-3
56253,-17
56255,-34
56257,-50
56260,-67
56262,-71
56264,-69
56266,-64
56268,-52
56270,-47
56272,-45
56274,-48
56276,-59
56278,-82
56280,-107
56281,-132
56283,-156
56285,-175
56287,-200
56289,-225
56291,-244
56293,-259
56295,-274
56297,-284
56299,-298
56301,-309
56303,-322
56305,-327
56307,-333
56309,-334
56311,-334
56312,-330
56314,-328
56316,-329
56318,-335
56320,-340
56322,-346
56324,-350
56326,-350
56328,-347
56330,-341
56332,-333
56334,-319
56336,-311
56338,-302
56340,-296
56342,-294
56343,-295
56345,-293
56347,-297
56349,-294
56351,-289
56353,-280
56355,-271
56357,-263
56359,-268
56361,-274
56363,-284
56365,-299
56367,-313
56369,-319
56371,-320
56373,-311
56374,-296
56376,-284
56378,-273
56380,-265
56382,-262
56385,-260
56387,-259
56389,-258
56391,-256
56393,-259
56395,-259
56397,-259
56399,-259
56401,-253
56403,-246
56405,-241
56406,-242
56408,-240
56410,-248
56412,-260
56414,-276
56416,-294
56418,-308
56420,-316
56422,-323
56424,-320
56426,-305
56428,-295
56430,-291
56432,-291
56434,-309
56436,-337
56437,-367
56439,-395
56441,-415
56443,-424
56445,-421
56447,-407
56449,-388
56451,-369
56453,-361
56455,-357
56457,-355
56459,-361
56461,-366
56463,-372
56465,-384
56467,-397
56468,-410
56470,-417
56472,-424
56474,-430
56476,-441
56478,-450
56480,-465
56482,-483
56484,-502
56486,-517
56488,-530
56490,-538
56492,-545
56494,-550
56496,-557
56498,-566
56499,-580
56501,-592
56503,-607
56505,-623
56507,-634
56510,-649
56512,-664
56514,-672
56516,-680
56518,-680
56520,-682
56522,-684
56524,-685
56526,-690
56528,-701
56530,-713
56531,-723
56533,-732
56535,-741
56537,-744
56539,-747
56541,-747
56543,-752
56545,-756
56547,-755
56549,-753
56551,-752
56553,-753
56555,-750
56557,-749
56559,-747
56561,-746
56562,-745
56564,-748
56566,-748
56568,-753
56570,-755
56572,-764
56574,-769
56576,-771
56578,-772
56580,-771
56582,-763
56584,-755
56586,-746
56588,-731
56590,-716
56592,-703
56593,-695
56595,-691
56597,-687
56599,-686
56601,-688
56603,-693
56605,-690
56607,-686
56609,-682
56611,-678
56613,-671
56615,-667
56617,-662
56619,-654
56621,-644
56623,-634
56624,-623
56626,-621
56628,-624
56630,-634
56632,-658
56635,-682
56637,-707
56639,-731
56641,-751
56643,-764
56645,-769
56647,-771
56649,-761
56651,-750
56653,-736
56655,-723
56656,-707
56658,-696
56660,-680
56662,-674
56664,-668
56666,-658
56668,-645
56670,-632
56672,-619
56674,-602
56676,-593
56678,-582
56680,-573
56682,-562
56684,-549
56686,-538
56687,-525
56689,-507
56691,-491
56693,-475
56695,-461
56697,-445
56699,-433
56701,-419
56703,-408
56705,-399
56707,-394
56709,-386
56711,-378
56713,-364
56715,-354
56717,-341
56718,-320
56720,-290
56722,-251
56724,-194
56726,-120
56728,-41
56730,42
56732,119
56734,179
56736,218
56738,240
56740,236
56742,212
56744,157
56746,64
56748,-68
56749,-230
56751,-419
56753,-620
56755,-808
56757,-985
56760,-1150
56762,-1294
56764,-1405
56766,-1493
56768,-1560
56770,-1605
56772,-1637
56774,-1655
56776,-1661
56778,-1644
56780,-1586
56781,-1491
56783,-1346
56785,-1151
56787,-909
56789,-657
56791,-426
56793,-229
56795,-71
56797,47
56799,133
56801,197
56803,241
56805,274
56807,293
56809,302
56811,306
56812,300
56814,287
56816,274
56818,257
56820,240
56822,225
56824,210
56826,196
56828,183
56830,169
56832,163
56834,155
56836,146
56838,139
56840,129
56842,120
56843,114
56845,112
56847,114
56849,117
56851,120
56853,122
56855,120
56857,116
56859,107
56861,101
56863,99
56865,99
56867,101
56869,107
56871,110
56873,116
56874,126
56876,131
56878,136
56880,140
56882,145
56885,145
56887,146
56889,147
56891,153
56893,161
56895,164
56897,165
56899,164
56901,161
56903,155
56905,154
56906,151
56908,153
56910,150
56912,147
56914,141
56916,138
56918,127
56920,121
56922,116
56924,120
56926,120
56928,123
56930,122
56932,124
56934,125
56936,124
56937,123
56939,126
56941,126
56943,131
56945,140
56947,143
56949,145
56951,147
56953,149
56955,151
56957,152
56959,154
56961,153
56963,152
56965,155
56967,163
56968,171
56970,178
56972,186
56974,188
56976,187
56978,182
56980,178
56982,172
56984,167
56986,163
56988,161
56990,158
56992,154
56994,148
56996,142
56998,133
56999,124
57001,115
57003,106
57005,96
57007,84
57010,71
57012,62
57014,52
57016,37
57018,21
57020,5
57022,-14
57024,-34
57026,-50
57028,-64
57030,-75
57031,-87
57033,-98
57035,-113
57037,-131
57039,-153
57041,-178
57043,-197
57045,-217
57047,-232
57049,-243
57051,-256
57053,-267
57055,-274
57057,-282
57059,-292
57061,-301
57062,-308
57064,-311
57066,-314
57068,-317
57070,-314
57072,-309
57074,-302
57076,-297
57078,-286
57080,-281
57082,-277
57084,-278
57086,-278
57088,-279
57090,-279
57092,-276
57093,-273
57095,-270
57097,-270
57099,-272
57101,-271
57103,-271
57105,-270
57107,-264
57109,-263
57111,-259
57113,-258
57115,-259
57117,-261
57119,-262
57121,-265
57123,-265
57124,-261
57126,-253
57128,-244
57130,-235
57132,-222
57135,-213
57137,-208
57139,-211
57141,-213
57143,-217
57145,-220
57147,-221
57149,-217
57151,-212
57153,-207
57155,-207
57156,-205
57158,-214
57160,-223
57162,-231
57164,-235
57166,-238
57168,-239
57170,-241
57172,-239
57174,-240
57176,-241
57178,-245
57180,-250
57182,-252
57184,-260
57186,-263
57187,-263
57189,-259
57191,-256
57193,-251
57195,-245
57197,-243
57199,-241
57201,-242
57203,-244
57205,-248
57207,-251
57209,-249
57211,-248
57213,-246
57215,-243
57217,-240
57218,-237
57220,-236
57222,-233
57224,-234
57226,-238
57228,-242
57230,-243
57232,-249
57234,-253
57236,-258
57238,-261
57240,-266
57242,-269
57244,-269
57246,-270
57248,-268
57249,-269
57251,-271
57253,-274
57255,-276
57257,-285
57260,-292
57262,-305
57264,-312
57266,-323
57268,-325
57270,-324
57272,-320
57274,-318
57276,-314
57278,-316
57280,-318
57281,-324
57283,-324
57285,-325
57287,-323
57289,-320
57291,-315
57293,-315
57295,-319
57297,-323
57299,-330
57301,-336
57303,-342
57305,-346
57307,-348
57309,-342
57311,-338
57312,-329
57314,-320
57316,-313
57318,-309
57320,-302
57322,-300
57324,-297
57326,-288
57328,-287
57330,-288
57332,-289
57334,-292
57336,-298
57338,-309
57340,-318
57342,-327
57343,-328
57345,-323
57347,-313
57349,-297
57351,-283
57353,-272
57355,-256
57357,-246
57359,-244
57361,-249
57363,-261
57365,-282
57367,-306
57369,-329
57371,-356
57373,-381
57374,-402
57376,-413
57378,-416
57380,-414
57382,-409
57385,-404
57387,-397
57389,-389
57391,-383
57393,-376
57395,-375
57397,-374
57399,-372
57401,-370
57403,-370
57405,-370
57406,-368
57408,-366
57410,-363
57412,-363
57414,-364
57416,-359
57418,-357
57420,-357
57422,-355
57424,-354
57426,-353
57428,-353
57430,-354
57432,-354
57434,-357
57436,-360
57437,-361
57439,-356
57441,-355
57443,-357
57445,-354
57447,-348
57449,-343
57451,-334
57453,-317
57455,-290
57457,-250
57459,-202
57461,-143
57463,-78
57465,-18
57467,33
57468,75
57470,105
57472,116
57474,104
57476,70
57478,-4
57480,-115
57482,-262
57484,-443
57486,-638
57488,-834
57490,-1020
57492,-1191
57494,-1347
57496,-1472
57498,-1567
57499,-1640
57501,-1694
57503,-1733
57505,-1761
57507,-1778
57510,-1780
57512,-1757
57514,-1688
57516,-1575
57518,-1407
57520,-1200
57522,-961
57524,-726
57526,-517
57528,-345
57530,-208
57531,-106
57533,-34
57535,16
57537,54
57539,79
57541,89
57543,90
57545,79
57547,68
57549,56
57551,45
57553,37
57555,32
57557,26
57559,22
57561,13
57562,3
57564,-5
57566,-11
57568,-19
57570,-23
57572,-21
57574,-21
57576,-18
57578,-18
57580,-15
57582,-15
57584,-14
57586,-12
57588,-5
57590,-2
57592,0
57593,4
57595,9
57597,14
57599,18
57601,23
57603,23
57605,26
57607,27
57609,34
57611,44
57613,56
57615,61
57617,69
57619,72
57621,73
57623,74
57624,75
57626,78
57628,86
57630,91
57632,99
57635,99
57637,98
57639,93
57641,96
57643,98
57645,101
57647,104
57649,110
57651,113
57653,116
57655,118
57656,123
57658,125
57660,132
57662,138
57664,143
57666,147
57668,148
57670,153
57672,162
57674,169
57676,180
57678,187
57680,196
57682,200
57684,205
57686,207
57687,211
57689,218
57691,221
57693,225
57695,231
57697,231
57699,232
57701,228
57703,231
57705,233
57707,238
57709,243
57711,245
57713,244
57715,242
57717,237
57718,233
57720,227
57722,223
57724,218
57726,215
57728,205
57730,196
57732,185
57734,169
57736,152
57738,138
57740,126
57742,114
57744,105
57746,94
57748,85
57749,80
57751,72
57753,63
57755,57
57757,42
57760,24
57762,7
57764,-14
57766,-32
57768,-50
57770,-67
57772,-84
57774,-99
57776,-113
57778,-128
57780,-142
57781,-156
57783,-168
57785,-176
57787,-181
57789,-182
57791,-182
57793,-179
57795,-184
57797,-186
57799,-192
57801,-203
57803,-213
57805,-219
57807,-220
57809,-219
57811,-212
57812,-204
57814,-198
57816,-193
57818,-192
57820,-191
57822,-191
57824,-186
57826,-183
57828,-176
57830,-168
57832,-164
57834,-159
57836,-157
57838,-159
57840,-157
57842,-156
57843,-152
57845,-148
57847,-142
57849,-138
57851,-130
57853,-124
57855,-116
57857,-111
57859,-108
57861,-106
57863,-104
57865,-101
57867,-95
57869,-92
57871,-85
57873,-80
57874,-74
57876,-67
57878,-62
57880,-57
57882,-52
57885,-49
57887,-45
57889,-42
57891,-40
57893,-37
57895,-32
57897,-23
57899,-16
57901,-10
57903,-6
57905,-3
57906,0
57908,1
57910,3
57912,5
57914,6
57916,8
57918,8
57920,7
57922,1
57924,-3
57926,-2
57928,-3
57930,-1
57932,6
57934,13
57936,17
57937,18
57939,17
57941,14
57943,8
57945,3
57947,4
57949,2
57951,4
57953,6
57955,8
57957,14
57959,11
57961,8
57963,3
57965,-5
57967,-16
57968,-20
57970,-25
57972,-28
57974,-28
57976,-27
57978,-32
57980,-36
57982,-44
57984,-51
57986,-59
57988,-62
57990,-64
57992,-64
57994,-64
57996,-64
57998,-71
57999,-80
58001,-88
58003,-99
58005,-103
58007,-109
58010,-117
58012,-120
58014,-123
58016,-128
58018,-133
58020,-138
58022,-147
58024,-153
58026,-158
58028,-167
58030,-178
58031,-185
58033,-190
58035,-197
58037,-202
58039,-203
58041,-200
58043,-194
58045,-189
58047,-178
58049,-171
58051,-169
58053,-175
58055,-177
58057,-184
58059,-196
58061,-208
58062,-214
58064,-219
58066,-219
58068,-216
58070,-212
58072,-209
58074,-209
58076,-204
58078,-197
58080,-191
58082,-189
58084,-189
58086,-192
58088,-207
58090,-227
58092,-253
58093,-283
58095,-311
58097,-336
58099,-350
58101,-362
58103,-369
58105,-370
58107,-364
58109,-354
58111,-344
58113,-332
58115,-322
58117,-316
58119,-309
58121,-308
58123,-313
58124,-317
58126,-318
58128,-319
58130,-318
58132,-317
58135,-309
58137,-303
58139,-297
58141,-293
58143,-292
58145,-295
58147,-299
58149,-302
58151,-300
58153,-298
58155,-295
58156,-294
58158,-292
58160,-288
58162,-288
58164,-290
58166,-289
58168,-293
58170,-296
58172,-299
58174,-300
58176,-296
58178,-280
58180,-252
58182,-208
58184,-158
58186,-99
58187,-46
58189,3
58191,34
58193,54
58195,59
58197,49
58199,14
58201,-47
58203,-138
58205,-262
58207,-411
58209,-579
58211,-741
58213,-892
58215,-1033
58217,-1164
58218,-1273
58220,-1362
58222,-1437
58224,-1498
58226,-1550
58228,-1587
58230,-1615
58232,-1623
58234,-1606
58236,-1550
58238,-1454
58240,-1301
58242,-1103
58244,-875
58246,-642
58248,-432
58249,-247
58251,-102
58253,8
58255,89
58257,143
58260,180
58262,202
58264,211
58266,203
58268,191
58270,178
58272,159
58274,144
58276,127
58278,107
58280,91
58281,75
58283,58
58285,45
58287,36
58289,30
58291,23
58293,17
58295,7
58297,-6
58299,-18
58301,-29
58303,-38
58305,-43
58307,-48
58309,-47
58311,-41
58312,-35
58314,-32
58316,-29
58318,-24
58320,-24
58322,-25
58324,-26
58326,-28
58328,-29
58330,-28
58332,-24
58334,-20
58336,-15
58338,-13
58340,-12
58342,-12
58343,-15
58345,-16
58347,-17
58349,-19
58351,-19
58353,-17
58355,-17
58357,-17
58359,-20
58361,-23
58363,-27
58365,-30
58367,-32
58369,-31
58371,-29
58373,-26
58374,-23
58376,-22
58378,-21
58380,-24
58382,-28
58385,-32
58387,-34
58389,-33
58391,-28
58393,-18
58395,-13
58397,-8
58399,-3
58401,0
58403,-1
58405,0
58406,2
58408,6
58410,12
58412,15
58414,20
58416,21
58418,21
58420,24
58422,26
58424,31
58426,36
58428,43
58430,46
58432,50
58434,53
58436,48
58437,43
58439,39
58441,31
58443,25
58445,18
58447,12
58449,8
58451,9
58453,4
58455,1
58457,-4
58459,-15
58461,-24
58463,-38
58465,-54
58467,-70
58468,-79
58470,-91
58472,-95
58474,-105
58476,-114
58478,-127
58480,-140
58482,-155
58484,-171
58486,-187
58488,-205
58490,-221
58492,-233
58494,-246
58496,-257
58498,-267
58499,-275
58501,-284
58503,-293
58505,-302
58507,-313
58510,-325
58512,-332
58514,-338
58516,-344
58518,-349
58520,-354
58522,-363
58524,-369
58526,-375
58528,-376
58530,-376
58531,-370
58533,-368
58535,-360
58537,-358
58539,-359
58541,-361
58543,-362
58545,-362
58547,-361
58549,-358
58551,-355
58553,-355
58555,-350
58557,-350
58559,-351
58561,-350
58562,-349
58564,-349
58566,-346
58568,-345
58570,-343
58572,-339
58574,-334
58576,-331
58578,-325
58580,-324
58582,-322
58584,-321
58586,-318
58588,-316
58590,-310
58592,-302
58593,-292
58595,-280
58597,-270
58599,-268
58601,-262
58603,-262
58605,-259
58607,-257
58609,-254
58611,-255
58613,-253
58615,-252
58617,-250
58619,-251
58621,-253
58623,-257
58624,-259
58626,-261
58628,-257
58630,-259
58632,-256
58635,-254
58637,-256
58639,-258
58641,-263
58643,-269
58645,-276
58647,-278
58649,-277
58651,-272
58653,-271
58655,-271
58656,-268
58658,-272
58660,-273
58662,-274
58664,-278
58666,-281
58668,-281
58670,-282
58672,-287
58674,-287
58676,-292
58678,-295
58680,-297
58682,-299
58684,-302
58686,-305
58687,-308
58689,-310
58691,-310
58693,-313
58695,-316
58697,-320
58699,-323
58701,-328
58703,-334
58705,-344
58707,-350
58709,-355
58711,-357
58713,-356
58715,-359
58717,-363
58718,-365
58720,-367
58722,-370
58724,-370
58726,-371
58728,-373
58730,-377
58732,-380
58734,-384
58736,-385
58738,-389
58740,-390
58742,-392
58744,-395
58746,-396
58748,-399
58749,-396
58751,-390
58753,-385
58755,-374
58757,-364
58760,-356
58762,-353
58764,-356
58766,-357
58768,-353
58770,-353
58772,-349
58774,-347
58776,-347
58778,-351
58780,-361
58781,-365
58783,-368
58785,-367
58787,-364
58789,-354
58791,-345
58793,-339
58795,-337
58797,-337
58799,-343
58801,-361
58803,-382
58805,-408
58807,-435
58809,-463
58811,-487
58812,-500
58814,-506
58816,-507
58818,-504
58820,-499
58822,-497
58824,-494
58826,-489
58828,-481
58830,-474
58832,-468
58834,-464
58836,-461
58838,-458
58840,-461
58842,-468
58843,-472
58845,-470
58847,-470
58849,-467
58851,-466
58853,-462
58855,-460
58857,-456
58859,-455
58861,-455
58863,-455
58865,-456
58867,-455
58869,-454
58871,-451
58873,-450
58874,-444
58876,-443
58878,-441
58880,-439
58882,-439
58885,-441
58887,-438
58889,-426
58891,-403
58893,-367
58895,-319
58897,-261
58899,-196
58901,-138
58903,-96
58905,-64
58906,-52
58908,-49
58910,-69
58912,-116
58914,-197
58916,-318
58918,-477
58920,-662
58922,-855
58924,-1028
58926,-1175
58928,-1294
58930,-1386
58932,-1452
58934,-1507
58936,-1564
58937,-1626
58939,-1695
58941,-1759
58943,-1807
58945,-1824
58947,-1784
58949,-1689
58951,-1544
58953,-1346
58955,-1108
58957,-857
58959,-623
58961,-417
58963,-254
58965,-125
58967,-25
58968,50
58970,103
58972,133
58974,145
58976,142
58978,124
58980,96
58982,72
58984,51
58986,33
58988,19
58990,9
58992,6
58994,-1
58996,-7
58998,-14
58999,-23
59001,-34
59003,-42
59005,-48
59007,-52
59010,-54
59012,-57
59014,-57
59016,-60
59018,-61
59020,-65
59022,-70
59024,-73
59026,-77
59028,-81
59030,-81
59031,-83
59033,-83
59035,-87
59037,-87
59039,-89
59041,-92
59043,-94
59045,-98
59047,-99
59049,-98
59051,-96
59053,-90
59055,-88
59057,-84
59059,-84
59061,-81
59062,-83
59064,-86
59066,-84
59068,-83
59070,-80
59072,-78
59074,-75
59076,-73
59078,-74
59080,-73
59082,-72
59084,-72
59086,-71
59088,-71
59090,-71
59092,-71
59093,-72
59095,-69
59097,-66
59099,-63
59101,-58
59103,-56
59105,-53
59107,-50
59109,-44
59111,-39
59113,-32
59115,-23
59117,-17
59119,-8
59121,-4
59123,-3
59124,4
59126,13
59128,18
59130,29
59132,35
59135,42
59137,44
59139,47
59141,49
59143,52
59145,51
59147,53
59149,56
59151,57
59153,55
59155,54
59156,49
59158,45
59160,37
59162,30
59164,24
59166,17
59168,6
59170,1
59172,-4
59174,-8
59176,-11
59178,-19
59180,-30
59182,-41
59184,-60
59186,-75
59187,-90
59189,-103
59191,-117
59193,-132
59195,-148
59197,-168
59199,-192
59201,-211
59203,-233
59205,-251
59207,-268
59209,-282
59211,-296
59213,-306
59215,-321
59217,-332
59218,-344
59220,-358
59222,-373
59224,-384
59226,-396
59228,-405
59230,-407
59232,-406
59234,-402
59236,-400
59238,-398
59240,-398
59242,-401
59244,-406
59246,-408
59248,-410
59249,-409
59251,-408
59253,-402
59255,-399
59257,-397
59260,-398
59262,-393
59264,-390
59266,-385
59268,-381
59270,-373
59272,-366
59274,-361
59276,-356
59278,-354
59280,-355
59281,-357
59283,-356
59285,-353
59287,-351
59289,-350
59291,-345
59293,-339
59295,-334
59297,-332
59299,-327
59301,-327
59303,-328
59305,-327
59307,-322
59309,-322
59311,-321
59312,-318
59314,-312
59316,-305
59318,-303
59320,-300
59322,-294
59324,-293
59326,-291
59328,-290
59330,-283
59332,-284
59334,-283
59336,-280
59338,-279
59340,-282
59342,-284
59343,-285
59345,-282
59347,-282
59349,-282
59351,-277
59353,-270
59355,-268
59357,-267
59359,-268
59361,-272
59363,-274
59365,-282
59367,-284
59369,-284
59371,-280
59373,-279
59374,-275
59376,-273
59378,-274
59380,-274
59382,-276
59385,-276
59387,-274
59389,-272
59391,-271
59393,-271
59395,-268
59397,-273
59399,-274
59401,-276
59403,-280
59405,-283
59406,-284
59408,-283
59410,-281
59412,-275
59414,-272
59416,-271
59418,-272
59420,-279
59422,-287
59424,-294
59426,-299
59428,-305
59430,-306
59432,-305
59434,-302
59436,-298
59437,-294
59439,-293
59441,-295
59443,-303
59445,-308
59447,-314
59449,-319
59451,-321
59453,-321
59455,-320
59457,-316
59459,-315
59461,-315
59463,-313
59465,-315
59467,-313
59468,-305
59470,-295
59472,-280
59474,-274
59476,-270
59478,-271
59480,-271
59482,-281
59484,-286
59486,-290
59488,-292
59490,-297
59492,-297
59494,-293
59496,-289
59498,-285
59499,-279
59501,-269
59503,-260
59505,-255
59507,-252
59510,-259
59512,-271
59514,-290
59516,-314
59518,-335
59520,-360
59522,-385
59524,-404
59526,-417
59528,-426
59530,-427
59531,-425
59533,-417
59535,-412
59537,-404
59539,-399
59541,-397
59543,-398
59545,-399
59547,-401
59549,-398
59551,-398
59553,-395
59555,-392
59557,-390
59559,-393
59561,-393
59562,-395
59564,-396
59566,-398
59568,-394
59570,-392
59572,-388
59574,-390
59576,-388
59578,-387
59580,-389
59582,-388
59584,-390
59586,-390
59588,-387
59590,-388
59592,-385
59593,-384
59595,-381
59597,-381
59599,-377
59601,-365
59603,-340
59605,-300
59607,-245
59609,-179
59611,-107
59613,-45
59615,-4
59617,20
59619,26
59621,7
59623,-33
59624,-102
59626,-208
59628,-350
59630,-529
59632,-732
59635,-931
59637,-1108
59639,-1263
59641,-1398
59643,-1504
59645,-1588
59647,-1663
59649,-1728
59651,-1785
59653,-1830
59655,-1867
59656,-1879
59658,-1854
59660,-1778
59662,-1655
59664,-1490
59666,-1273
59668,-1024
59670,-768
59672,-537
59674,-335
59676,-179
59678,-60
59680,34
59682,96
59684,136
59686,159
59687,166
59689,160
59691,141
59693,120
59695,98
59697,80
59699,59
59701,42
59703,27
59705,15
59707,0
59709,-12
59711,-19
59713,-24
59715,-33
59717,-37
59718,-41
59720,-47
59722,-54
59724,-63
59726,-69
59728,-73
59730,-79
59732,-81
59734,-83
59736,-86
59738,-88
59740,-90
59742,-91
59744,-93
59746,-94
59748,-91
59749,-85
59751,-80
59753,-77
59755,-75
59757,-75
59760,-77
59762,-78
59764,-82
59766,-82
59768,-85
59770,-80
59772,-76
59774,-71
59776,-67
59778,-64
59780,-62
59781,-62
59783,-66
59785,-66
59787,-65
59789,-65
59791,-65
59793,-65
59795,-64
59797,-65
59799,-69
59801,-69
59803,-69
59805,-69
59807,-67
59809,-62
59811,-59
59812,-54
59814,-51
59816,-44
59818,-43
59820,-39
59822,-39
59824,-33
59826,-33
59828,-28
59830,-21
59832,-9
59834,-2
59836,7
59838,16
59840,20
59842,22
59843,23
59845,29
59847,33
59849,38
59851,43
59853,49
59855,54
59857,52
59859,50
59861,46
59863,40
59865,34
59867,27
59869,24
59871,18
59873,14
59874,8
59876,5
59878,-1
59880,-5
59882,-12
59885,-19
59887,-28
59889,-36
59891,-45
59893,-49
59895,-55
59897,-69
59899,-83
59901,-100
59903,-122
59905,-142
59906,-163
59908,-182
59910,-196
59912,-210
59914,-224
59916,-239
59918,-259
59920,-280
59922,-299
59924,-318
59926,-334
59928,-347
59930,-358
59932,-369
59934,-380
59936,-387
59937,-394
59939,-398
59941,-402
59943,-406
59945,-408
59947,-410
59949,-413
59951,-414
59953,-414
59955,-413
59957,-413
59959,-411
59961,-411
59963,-413
59965,-414
59967,-415
59968,-413
59970,-408
59972,-400
59974,-392
59976,-386
59978,-386
59980,-385
59982,-387
59984,-387
59986,-386
59988,-384
59990,-377
59992,-370
59994,-362
59996,-354
59998,-352
59999,-352
60001,-351
60003,-349
60005,-348
60007,-343
60010,-337
60012,-330
60014,-321
60016,-316
60018,-314
60020,-312
60022,-316
60024,-315
60026,-311
60028,-309
60030,-304
60031,-297
60033,-288
60035,-281
60037,-279
60039,-279
60041,-280
60043,-279
60045,-278
60047,-279
60049,-280
60051,-278
60053,-278
60055,-276
60057,-275
60059,-279
60061,-282
60062,-283
60064,-286
60066,-284
60068,-287
60070,-281
60072,-274
60074,-268
60076,-264
60078,-262
60080,-263
60082,-270
60084,-276
60086,-275
60088,-278
60090,-274
60092,-271
60093,-264
60095,-258
60097,-259
60099,-260
60101,-259
60103,-260
60105,-262
60107,-262
60109,-260
60111,-261
60113,-263
60115,-262
60117,-263
60119,-266
60121,-269
60123,-272
60124,-268
60126,-267
60128,-269
60130,-268
60132,-262
60135,-262
60137,-260
60139,-262
60141,-264
60143,-269
60145,-271
60147,-272
60149,-272
60151,-268
60153,-264
60155,-261
60156,-257
60158,-254
60160,-253
60162,-253
60164,-254
60166,-258
60168,-263
60170,-263
60172,-264
60174,-262
60176,-263
60178,-259
60180,-258
60182,-257
60184,-256
60186,-255
60187,-257
60189,-259
60191,-257
60193,-254
60195,-248
60197,-242
60199,-235
60201,-235
60203,-238
60205,-238
60207,-239
60209,-243
60211,-244
60213,-247
60215,-251
60217,-254
60218,-257
60220,-255
60222,-253
60224,-250
60226,-247
60228,-239
60230,-232
60232,-228
60234,-226
60236,-222
60238,-224
60240,-224
60242,-223
60244,-217
60246,-214
60248,-210
60249,-211
60251,-206
60253,-202
60255,-194
60257,-191
60260,-182
60262,-174
60264,-166
60266,-159
60268,-152
60270,-152
60272,-161
60274,-177
60276,-199
60278,-226
60280,-256
60281,-287
60283,-313
60285,-327
60287,-336
60289,-332
60291,-325
60293,-317
60295,-310
60297,-302
60299,-298
60301,-296
60303,-296
60305,-298
60307,-300
60309,-300
60311,-301
60312,-297
60314,-292
60316,-287
60318,-285
60320,-283
60322,-285
60324,-289
60326,-290
60328,-291
60330,-291
60332,-285
60334,-281
60336,-278
60338,-278
60340,-276
60342,-280
60343,-279
60345,-280
60347,-277
60349,-275
60351,-269
60353,-267
60355,-267
60357,-263
60359,-263
60361,-262
60363,-253
60365,-230
60367,-188
60369,-137
60371,-73
60373,-7
60374,57
60376,100
60378,128
60380,142
60382,138
60385,110
60387,63
60389,-25
60391,-149
60393,-312
60395,-509
60397,-715
60399,-905
60401,-1082
60403,-1238
60405,-1371
60406,-1470
60408,-1550
60410,-1616
60412,-1674
60414,-1716
60416,-1749
60418,-1765
60420,-1752
60422,-1699
60424,-1600
60426,-1455
60428,-1259
60430,-1020
60432,-764
60434,-526
60436,-318
60437,-147
60439,-15
60441,82
60443,148
60445,191
60447,217
60449,229
60451,224
60453,215
60455,199
60457,178
60459,157
60461,136
60463,117
60465,104
60467,90
60468,83
60470,75
60472,66
60474,57
60476,50
60478,42
60480,35
60482,25
60484,11
60486,-2
60488,-12
60490,-20
60492,-24
60494,-25
60496,-22
60498,-18
60499,-13
60501,-15
60503,-16
60505,-19
60507,-22
60510,-23
60512,-23
60514,-22
60516,-24
60518,-26
60520,-28
60522,-29
60524,-30
60526,-32
60528,-33
60530,-30
60531,-26
60533,-24
60535,-21
60537,-18
60539,-14
60541,-14
60543,-17
60545,-22
60547,-24
60549,-29
60551,-31
60553,-29
60555,-30
60557,-29
60559,-31
60561,-31
60562,-33
60564,-37
60566,-41
60568,-39
60570,-39
60572,-38
60574,-34
60576,-31
60578,-30
60580,-29
60582,-24
60584,-21
60586,-14
60588,-7
60590,1
60592,5
60593,11
60595,14
60597,19
60599,24
60601,30
60603,34
60605,42
60607,45
60609,51
60611,54
60613,57
60615,64
60617,69
60619,72
60621,67
60623,65
60624,66
60626,62
60628,59
60630,56
60632,52
60635,47
60637,40
60639,33
60641,25
60643,15
60645,3
60647,-5
60649,-12
60651,-17
60653,-27
60655,-35
60656,-46
60658,-57
60660,-70
60662,-87
60664,-103
60666,-118
60668,-138
60670,-155
60672,-170
60674,-185
60676,-201
60678,-219
60680,-236
60682,-261
60684,-281
60686,-302
60687,-318
60689,-333
60691,-344
60693,-352
60695,-358
60697,-370
60699,-379
60701,-387
60703,-392
60705,-399
60707,-404
60709,-403
60711,-407
60713,-408
60715,-411
60717,-410
60718,-412
60720,-414
60722,-418
60724,-422
60726,-426
60728,-430
60730,-429
60732,-423
60734,-419
60736,-413
60738,-407
60740,-404
60742,-403
60744,-405
60746,-405
60748,-408
60749,-406
60751,-404
60753,-399
60755,-394
60757,-391
60760,-392
60762,-387
60764,-385
60766,-379
60768,-378
60770,-373
60772,-371
60774,-366
60776,-360
60778,-357
60780,-354
60781,-355
60783,-351
60785,-347
60787,-345
60789,-344
60791,-340
60793,-336
60795,-329
60797,-322
60799,-316
60801,-314
60803,-315
60805,-316
60807,-315
60809,-315
60811,-313
60812,-310
60814,-300
60816,-299
60818,-299
60820,-300
60822,-300
60824,-305
60826,-309
60828,-312
60830,-310
60832,-309
60834,-306
60836,-299
60838,-297
60840,-293
60842,-293
60843,-293
60845,-293
60847,-295
60849,-297
60851,-293
60853,-289
60855,-281
60857,-280
60859,-279
60861,-283
60863,-287
60865,-291
60867,-295
60869,-297
60871,-295
60873,-296
60874,-290
60876,-286
60878,-285
60880,-286
60882,-284
60885,-286
60887,-290
60889,-292
60891,-297
60893,-298
60895,-302
60897,-303
60899,-302
60901,-301
60903,-303
60905,-306
60906,-308
60908,-308
60910,-310
60912,-304
60914,-301
60916,-299
60918,-302
60920,-302
60922,-307
60924,-309
60926,-314
60928,-314
60930,-316
60932,-314
60934,-313
60936,-309
60937,-308
60939,-310
60941,-307
60943,-306
60945,-305
60947,-304
60949,-305
60951,-307
60953,-307
60955,-308
60957,-303
60959,-301
60961,-299
60963,-301
60965,-300
60967,-306
60968,-307
60970,-305
60972,-302
60974,-301
60976,-297
60978,-296
60980,-297
60982,-302
60984,-309
60986,-314
60988,-314
60990,-314
60992,-311
60994,-303
60996,-298
60998,-297
60999,-299
61001,-298
61003,-298
61005,-299
61007,-301
61010,-300
61012,-299
61014,-298
61016,-297
61018,-298
61020,-299
61022,-300
61024,-298
61026,-298
61028,-298
61030,-300
61031,-296
61033,-294
61035,-289
61037,-286
61039,-284
61041,-289
61043,-292
61045,-298
61047,-301
61049,-305
61051,-306
61053,-308
61055,-306
61057,-304
61059,-303
61061,-303
61062,-301
61064,-299
61066,-296
61068,-290
61070,-289
61072,-288
61074,-291
61076,-289
61078,-291
61080,-287
61082,-288
61084,-284
61086,-286
61088,-286
61090,-288
61092,-294
61093,-298
61095,-303
61097,-307
61099,-312
61101,-315
61103,-317
61105,-314
61107,-309
61109,-297
61111,-286
61113,-276
61115,-266
61117,-261
61119,-257
61121,-257
61123,-259
61124,-256
61126,-252
61128,-250
61130,-248
61132,-252
61135,-253
61137,-251
61139,-247
61141,-244
61143,-235
61145,-226
61147,-216
61149,-210
61151,-203
61153,-206
61155,-215
61156,-230
61158,-249
61160,-275
61162,-306
61164,-333
61166,-355
61168,-363
61170,-365
61172,-362
61174,-353
61176,-347
61178,-347
61180,-342
61182,-340
61184,-339
61186,-338
61187,-335
61189,-331
61191,-329
61193,-327
61195,-324
61197,-319
61199,-317
61201,-317
61203,-313
61205,-314
61207,-315
61209,-316
61211,-317
61213,-314
61215,-311
61217,-309
61218,-306
61220,-302
61222,-301
61224,-304
61226,-304
61228,-306
61230,-306
61232,-301
61234,-297
61236,-293
61238,-292
61240,-293
61242,-294
61244,-295
61246,-296
61248,-293
61249,-271
61251,-238
61253,-192
61255,-134
61257,-66
61260,-3
61262,46
61264,80
61266,99
61268,105
61270,96
61272,67
61274,5
61276,-95
61278,-235
61280,-416
61281,-616
61283,-813
61285,-990
61287,-1144
61289,-1273
61291,-1375
61293,-1448
61295,-1516
61297,-1585
61299,-1646
61301,-1697
61303,-1740
61305,-1757
61307,-1733
61309,-1661
61311,-1537
61312,-1365
61314,-1144
61316,-894
61318,-650
61320,-431
61322,-251
61324,-112
61326,-10
61328,68
61330,122
61332,157
61334,181
61336,190
61338,185
61340,172
61342,152
61343,131
61345,113
61347,97
61349,83
61351,72
61353,58
61355,47
61357,29
61359,11
61361,-4
61363,-15
61365,-25
61367,-32
61369,-34
61371,-41
61373,-48
61374,-55
61376,-57
61378,-57
61380,-59
61382,-63
61385,-66
61387,-73
61389,-78
61391,-80
61393,-80
61395,-82
61397,-82
61399,-82
61401,-82
61403,-88
61405,-94
61406,-98
61408,-99
61410,-97
61412,-96
61414,-93
61416,-89
61418,-89
61420,-89
61422,-88
61424,-87
61426,-86
61428,-86
61430,-84
61432,-84
61434,-83
61436,-83
61437,-78
61439,-77
61441,-79
61443,-82
61445,-84
61447,-85
61449,-90
61451,-91
61453,-90
61455,-88
61457,-84
61459,-83
61461,-81
61463,-79
61465,-80
61467,-79
61468,-76
61470,-65
61472,-55
61474,-44
61476,-34
61478,-29
61480,-25
61482,-18
61484,-16
61486,-8
61488,-2
61490,3
61492,9
61494,14
61496,18
61498,21
61499,24
61501,27
61503,29
61505,32
61507,31
61510,31
61512,31
61514,32
61516,31
61518,30
61520,24
61522,15
61524,3
61526,-7
61528,-15
61530,-24
61531,-31
61533,-36
61535,-42
61537,-50
61539,-60
61541,-69
61543,-80
61545,-93
61547,-106
61549,-118
61551,-129
61553,-142
61555,-156
61557,-165
61559,-179
61561,-188
61562,-198
61564,-208
61566,-221
61568,-238
61570,-253
61572,-263
61574,-279
61576,-292
61578,-304
61580,-317
61582,-332
61584,-346
61586,-356
61588,-362
61590,-369
61592,-371
61593,-370
61595,-365
61597,-366
61599,-369
61601,-370
61603,-372
61605,-375
61607,-379
61609,-379
61611,-378
61613,-373
61615,-368
61617,-363
61619,-356
61621,-350
61623,-350
61624,-346
61626,-344
61628,-344
61630,-341
61632,-340
61635,-334
61637,-332
61639,-329
61641,-328
61643,-327
61645,-327
61647,-327
61649,-323
61651,-318
61653,-315
61655,-310
61656,-304
61658,-300
61660,-293
61662,-286
61664,-276
61666,-268
61668,-263
61670,-257
61672,-254
61674,-250
61676,-247
61678,-243
61680,-240
61682,-239
61684,-238
61686,-236
61687,-234
61689,-232
61691,-227
61693,-220
61695,-212
61697,-210
61699,-206
61701,-205
61703,-210
61705,-213
61707,-214
61709,-216
61711,-211
61713,-206
61715,-201
61717,-196
61718,-191
61720,-190
61722,-189
61724,-185
61726,-188
61728,-186
61730,-183
61732,-186
61734,-184
61736,-183
61738,-185
61740,-187
61742,-187
61744,-190
61746,-190
61748,-189
61749,-183
61751,-176
61753,-168
61755,-163
61757,-159
61760,-161
61762,-168
61764,-174
61766,-180
61768,-178
61770,-177
61772,-174
61774,-167
61776,-163
61778,-164
61780,-167
61781,-172
61783,-178
61785,-183
61787,-188
61789,-187
61791,-184
61793,-184
61795,-182
61797,-177
61799,-173
61801,-174
61803,-180
61805,-184
61807,-190
61809,-198
61811,-199
61812,-198
61814,-196
61816,-189
61818,-184
61820,-184
61822,-187
61824,-195
61826,-195
61828,-195
61830,-192
61832,-192
61834,-188
61836,-185
61838,-186
61840,-189
61842,-194
61843,-198
61845,-199
61847,-201
61849,-197
61851,-194
61853,-191
61855,-189
61857,-185
61859,-184
61861,-187
61863,-188
61865,-190
61867,-196
61869,-199
61871,-204
61873,-203
61874,-202
61876,-201
61878,-199
61880,-193
61882,-194
61885,-193
61887,-188
61889,-184
61891,-182
61893,-184
61895,-186
61897,-191
61899,-193
61901,-196
61903,-198
61905,-196
61906,-194
61908,-190
61910,-188
61912,-186
61914,-185
61916,-187
61918,-183
61920,-180
61922,-180
61924,-177
61926,-179
61928,-178
61930,-174
61932,-176
61934,-179
61936,-184
61937,-186
61939,-187
61941,-188
61943,-192
61945,-195
61947,-188
61949,-182
61951,-177
61953,-168
61955,-166
61957,-167
61959,-172
61961,-178
61963,-182
61965,-188
61967,-193
61968,-192
61970,-185
61972,-181
61974,-176
61976,-170
61978,-166
61980,-165
61982,-169
61984,-174
61986,-176
61988,-179
61990,-180
61992,-177
61994,-173
61996,-166
61998,-165
61999,-156
62001,-154
62003,-156
62005,-159
62007,-161
62010,-166
62012,-170
62014,-174
62016,-181
62018,-185
62020,-181
62022,-176
62024,-169
62026,-159
62028,-155
62030,-145
62031,-140
62033,-136
62035,-136
62037,-133
62039,-136
62041,-131
62043,-129
62045,-131
62047,-133
62049,-136
62051,-138
62053,-135
62055,-130
62057,-121
62059,-111
62061,-99
62062,-96
62064,-93
62066,-102
62068,-119
62070,-139
62072,-163
62074,-188
62076,-212
62078,-233
62080,-244
62082,-250
62084,-253
62086,-254
62088,-250
62090,-245
62092,-241
62093,-240
62095,-233
62097,-228
62099,-225
62101,-228
62103,-230
62105,-234
62107,-238
62109,-241
62111,-237
62113,-232
62115,-228
62117,-229
62119,-225
62121,-224
62123,-230
62124,-232
62126,-230
62128,-229
62130,-224
62132,-219
62135,-219
62137,-221
62139,-222
62141,-224
62143,-224
62145,-224
62147,-224
62149,-222
62151,-222
62153,-223
62155,-226
62156,-227
62158,-230
62160,-235
62162,-233
62164,-223
62166,-200
62168,-166
62170,-114
62172,-51
62174,15
62176,70
62178,105
62180,127
62182,132
62184,124
62186,107
62187,75
62189,15
62191,-79
62193,-209
62195,-367
62197,-540
62199,-718
62201,-876
62203,-1020
62205,-1142
62207,-1242
62209,-1322
62211,-1391
62213,-1461
62215,-1518
62217,-1567
62218,-1603
62220,-1606
62222,-1576
62224,-1504
62226,-1378
62228,-1210
62230,-1001
62232,-768
62234,-548
62236,-351
62238,-183
62240,-52
62242,42
62244,112
62246,154
62248,185
62249,203
62251,206
62253,201
62255,189
62257,170
62260,148
62262,128
62264,108
62266,89
62268,75
62270,63
62272,50
62274,41
62276,31
62278,24
62280,15
62281,11
62283,13
62285,9
62287,7
62289,-1
62291,-1
62293,-4
62295,-4
62297,0
62299,2
62301,-2
62303,-10
62305,-16
62307,-20
62309,-23
62311,-23
62312,-24
62314,-17
62316,-13
62318,-10
62320,-11
62322,-14
62324,-17
62326,-21
62328,-24
62330,-25
62332,-20
62334,-21
62336,-18
62338,-13
62340,-8
62342,-6
62343,-6
62345,-10
62347,-13
62349,-19
62351,-18
62353,-16
62355,-12
62357,-8
62359,-9
62361,-12
62363,-13
62365,-17
62367,-17
62369,-15
62371,-13
62373,-10
62374,-1
62376,4
62378,2
62380,9
62382,9
62385,9
62387,10
62389,10
62391,14
62393,14
62395,20
62397,24
62399,31
62401,38
62403,39
62405,40
62406,44
62408,44
62410,47
62412,55
62414,64
62416,72
62418,77
62420,79
62422,75
62424,68
62426,64
62428,59
62430,62
62432,63
62434,63
62436,66
62437,63
62439,55
62441,45
62443,32
62445,19
62447,6
62449,-3
62451,-11
62453,-18
62455,-22
62457,-21
62459,-24
62461,-29
62463,-41
62465,-56
62467,-76
62468,-94
62470,-110
62472,-118
62474,-127
62476,-135
62478,-140
62480,-154
62482,-170
62484,-185
62486,-207
62488,-224
62490,-236
62492,-241
62494,-240
62496,-242
62498,-247
62499,-256
62501,-262
62503,-272
62505,-281
62507,-292
62510,-300
62512,-304
62514,-306
62516,-305
62518,-304
62520,-301
62522,-299
62524,-298
62526,-299
62528,-300
62530,-304
62531,-307
62533,-302
62535,-301
62537,-297
62539,-291
62541,-285
62543,-285
62545,-287
62547,-290
62549,-289
62551,-292
62553,-288
62555,-284
62557,-282
62559,-281
62561,-282
62562,-280
62564,-285
62566,-285
62568,-281
62570,-276
62572,-270
62574,-267
62576,-256
62578,-249
62580,-245
62582,-242
62584,-237
62586,-238
62588,-235
62590,-233
62592,-229
62593,-225
62595,-217
62597,-209
62599,-201
62601,-198
62603,-196
62605,-198
62607,-195
62609,-194
62611,-192
62613,-189
62615,-187
62617,-189
62619,-188
62621,-188
62623,-189
62624,-189
62626,-189
62628,-189
62630,-188
62632,-190
62635,-187
62637,-184
62639,-178
62641,-174
62643,-171
62645,-170
62647,-171
62649,-171
62651,-167
62653,-161
62655,-157
62656,-155
62658,-150
62660,-151
62662,-155
62664,-163
62666,-167
62668,-168
62670,-168
62672,-167
62674,-163
62676,-162
62678,-163
62680,-167
62682,-164
62684,-168
62686,-168
62687,-173
62689,-172
62691,-173
62693,-174
62695,-173
62697,-167
62699,-166
62701,-164
62703,-164
62705,-168
62707,-175
62709,-181
62711,-189
62713,-190
62715,-192
62717,-189
62718,-185
62720,-181
62722,-182
62724,-181
62726,-182
62728,-181
62730,-183
62732,-182
62734,-184
62736,-185
62738,-182
62740,-179
62742,-178
62744,-176
62746,-179
62748,-180
62749,-182
62751,-184
62753,-186
62755,-180
62757,-177
62760,-172
62762,-172
62764,-169
62766,-177
62768,-180
62770,-187
62772,-188
62774,-186
62776,-182
62778,-181
62780,-178
62781,-175
62783,-177
62785,-182
62787,-181
62789,-181
62791,-177
62793,-175
62795,-170
62797,-171
62799,-172
62801,-172
62803,-174
62805,-176
62807,-174
62809,-175
62811,-173
62812,-172
62814,-171
62816,-173
62818,-172
62820,-176
62822,-176
62824,-175
62826,-176
62828,-177
62830,-176
62832,-175
62834,-174
62836,-171
